I,II,III,aVR,aVL,aVF,V1,V2,V3,V4,V5,V6
0.0,0.0,0.0,0.0,0.0,0.0,0.0,0.0,0.0,0.0,0.0,0.0
0.00018849511272532067,0.00018849511272532067,0.00018849511272532067,0.00018849511272532067,0.00018849511272532067,0.00018849511272532067,0.00018849511272532067,0.00018849511272532067,0.00018849511272532067,0.00018849511272532067,0.00018849511272532067,0.00018849511272532067
0.0003769875465178546,0.0003769875465178546,0.0003769875465178546,0.0003769875465178546,0.0003769875465178546,0.0003769875465178546,0.0003769875465178546,0.0003769875465178546,0.0003769875465178546,0.0003769875465178546,0.0003769875465178546,0.0003769875465178546
0.0005654746224828885,0.0005654746224828885,0.0005654746224828885,0.0005654746224828885,0.0005654746224828885,0.0005654746224828885,0.0005654746224828885,0.0005654746224828885,0.0005654746224828885,0.0005654746224828885,0.0005654746224828885,0.0005654746224828885
0.000753953661801856,0.000753953661801856,0.000753953661801856,0.000753953661801856,0.000753953661801856,0.000753953661801856,0.000753953661801856,0.000753953661801856,0.000753953661801856,0.000753953661801856,0.000753953661801856,0.000753953661801856
0.0009424219857704088,0.0009424219857704088,0.0009424219857704088,0.0009424219857704088,0.0009424219857704088,0.0009424219857704088,0.0009424219857704088,0.0009424219857704088,0.0009424219857704088,0.0009424219857704088,0.0009424219857704088,0.0009424219857704088
0.0011308769158364877,0.0011308769158364877,0.0011308769158364877,0.0011308769158364877,0.0011308769158364877,0.0011308769158364877,0.0011308769158364877,0.0011308769158364877,0.0011308769158364877,0.0011308769158364877,0.0011308769158364877,0.0011308769158364877
0.001319315773638391,0.001319315773638391,0.001319315773638391,0.001319315773638391,0.001319315773638391,0.001319315773638391,0.001319315773638391,0.001319315773638391,0.001319315773638391,0.001319315773638391,0.001319315773638391,0.001319315773638391
0.0015077358810428377,0.0015077358810428377,0.0015077358810428377,0.0015077358810428377,0.0015077358810428377,0.0015077358810428377,0.0015077358810428377,0.0015077358810428377,0.0015077358810428377,0.0015077358810428377,0.0015077358810428377,0.0015077358810428377
0.0016961345601830336,0.0016961345601830336,0.0016961345601830336,0.0016961345601830336,0.0016961345601830336,0.0016961345601830336,0.0016961345601830336,0.0016961345601830336,0.0016961345601830336,0.0016961345601830336,0.0016961345601830336,0.0016961345601830336
0.001884509133496727,0.001884509133496727,0.001884509133496727,0.001884509133496727,0.001884509133496727,0.001884509133496727,0.001884509133496727,0.001884509133496727,0.001884509133496727,0.001884509133496727,0.001884509133496727,0.001884509133496727
0.0020728569237642622,0.0020728569237642622,0.0020728569237642622,0.0020728569237642622,0.0020728569237642622,0.0020728569237642622,0.0020728569237642622,0.0020728569237642622,0.0020728569237642622,0.0020728569237642622,0.0020728569237642622,0.0020728569237642622
0.0022611752541466306,0.0022611752541466306,0.0022611752541466306,0.0022611752541466306,0.0022611752541466306,0.0022611752541466306,0.0022611752541466306,0.0022611752541466306,0.0022611752541466306,0.0022611752541466306,0.0022611752541466306,0.0022611752541466306
0.0024494614482235147,0.0024494614482235147,0.0024494614482235147,0.0024494614482235147,0.0024494614482235147,0.0024494614482235147,0.0024494614482235147,0.0024494614482235147,0.0024494614482235147,0.0024494614482235147,0.0024494614482235147,0.0024494614482235147
0.0026377128300313236,0.0026377128300313236,0.0026377128300313236,0.0026377128300313236,0.0026377128300313236,0.0026377128300313236,0.0026377128300313236,0.0026377128300313236,0.0026377128300313236,0.0026377128300313236,0.0026377128300313236,0.0026377128300313236
0.0028259267241012263,0.0028259267241012263,0.0028259267241012263,0.0028259267241012263,0.0028259267241012263,0.0028259267241012263,0.0028259267241012263,0.0028259267241012263,0.0028259267241012263,0.0028259267241012263,0.0028259267241012263,0.0028259267241012263
0.003014100455497176,0.003014100455497176,0.003014100455497176,0.003014100455497176,0.003014100455497176,0.003014100455497176,0.003014100455497176,0.003014100455497176,0.003014100455497176,0.003014100455497176,0.003014100455497176,0.003014100455497176
0.0032022313498539256,0.0032022313498539256,0.0032022313498539256,0.0032022313498539256,0.0032022313498539256,0.0032022313498539256,0.0032022313498539256,0.0032022313498539256,0.0032022313498539256,0.0032022313498539256,0.0032022313498539256,0.0032022313498539256
0.0033903167334150375,0.0033903167334150375,0.0033903167334150375,0.0033903167334150375,0.0033903167334150375,0.0033903167334150375,0.0033903167334150375,0.0033903167334150375,0.0033903167334150375,0.0033903167334150375,0.0033903167334150375,0.0033903167334150375
0.003578353933070884,0.003578353933070884,0.003578353933070884,0.003578353933070884,0.003578353933070884,0.003578353933070884,0.003578353933070884,0.003578353933070884,0.003578353933070884,0.003578353933070884,0.003578353933070884,0.003578353933070884
0.0037663402763966364,0.0037663402763966364,0.0037663402763966364,0.0037663402763966364,0.0037663402763966364,0.0037663402763966364,0.0037663402763966364,0.0037663402763966364,0.0037663402763966364,0.0037663402763966364,0.0037663402763966364,0.0037663402763966364
0.003954273091690246,0.003954273091690246,0.003954273091690246,0.003954273091690246,0.003954273091690246,0.003954273091690246,0.003954273091690246,0.003954273091690246,0.003954273091690246,0.003954273091690246,0.003954273091690246,0.003954273091690246
0.00414214970801042,0.00414214970801042,0.00414214970801042,0.00414214970801042,0.00414214970801042,0.00414214970801042,0.00414214970801042,0.00414214970801042,0.00414214970801042,0.00414214970801042,0.00414214970801042,0.00414214970801042
0.0043299674552145714,0.0043299674552145714,0.0043299674552145714,0.0043299674552145714,0.0043299674552145714,0.0043299674552145714,0.0043299674552145714,0.0043299674552145714,0.0043299674552145714,0.0043299674552145714,0.0043299674552145714,0.0043299674552145714
0.004517723663996779,0.004517723663996779,0.004517723663996779,0.004517723663996779,0.004517723663996779,0.004517723663996779,0.004517723663996779,0.004517723663996779,0.004517723663996779,0.004517723663996779,0.004517723663996779,0.004517723663996779
0.004705415665925717,0.004705415665925717,0.004705415665925717,0.004705415665925717,0.004705415665925717,0.004705415665925717,0.004705415665925717,0.004705415665925717,0.004705415665925717,0.004705415665925717,0.004705415665925717,0.004705415665925717
0.004893040793482577,0.004893040793482577,0.004893040793482577,0.004893040793482577,0.004893040793482577,0.004893040793482577,0.004893040793482577,0.004893040793482577,0.004893040793482577,0.004893040793482577,0.004893040793482577,0.004893040793482577
0.005080596380098993,0.005080596380098993,0.005080596380098993,0.005080596380098993,0.005080596380098993,0.005080596380098993,0.005080596380098993,0.005080596380098993,0.005080596380098993,0.005080596380098993,0.005080596380098993,0.005080596380098993
0.005268079760194919,0.005268079760194919,0.005268079760194919,0.005268079760194919,0.005268079760194919,0.005268079760194919,0.005268079760194919,0.005268079760194919,0.005268079760194919,0.005268079760194919,0.005268079760194919,0.005268079760194919
0.005455488269216531,0.005455488269216531,0.005455488269216531,0.005455488269216531,0.005455488269216531,0.005455488269216531,0.005455488269216531,0.005455488269216531,0.005455488269216531,0.005455488269216531,0.005455488269216531,0.005455488269216531
0.005642819243674085,0.005642819243674085,0.005642819243674085,0.005642819243674085,0.005642819243674085,0.005642819243674085,0.005642819243674085,0.005642819243674085,0.005642819243674085,0.005642819243674085,0.005642819243674085,0.005642819243674085
0.0058300700211797755,0.0058300700211797755,0.0058300700211797755,0.0058300700211797755,0.0058300700211797755,0.0058300700211797755,0.0058300700211797755,0.0058300700211797755,0.0058300700211797755,0.0058300700211797755,0.0058300700211797755,0.0058300700211797755
0.006017237940485575,0.006017237940485575,0.006017237940485575,0.006017237940485575,0.006017237940485575,0.006017237940485575,0.006017237940485575,0.006017237940485575,0.006017237940485575,0.006017237940485575,0.006017237940485575,0.006017237940485575
0.006204320341521053,0.006204320341521053,0.006204320341521053,0.006204320341521053,0.006204320341521053,0.006204320341521053,0.006204320341521053,0.006204320341521053,0.006204320341521053,0.006204320341521053,0.006204320341521053,0.006204320341521053
0.0063913145654311805,0.0063913145654311805,0.0063913145654311805,0.0063913145654311805,0.0063913145654311805,0.0063913145654311805,0.0063913145654311805,0.0063913145654311805,0.0063913145654311805,0.0063913145654311805,0.0063913145654311805,0.0063913145654311805
0.0065782179546141255,0.0065782179546141255,0.0065782179546141255,0.0065782179546141255,0.0065782179546141255,0.0065782179546141255,0.0065782179546141255,0.0065782179546141255,0.0065782179546141255,0.0065782179546141255,0.0065782179546141255,0.0065782179546141255
0.006765027852759013,0.006765027852759013,0.006765027852759013,0.006765027852759013,0.006765027852759013,0.006765027852759013,0.006765027852759013,0.006765027852759013,0.006765027852759013,0.006765027852759013,0.006765027852759013,0.006765027852759013
0.006951741604883693,0.006951741604883693,0.006951741604883693,0.006951741604883693,0.006951741604883693,0.006951741604883693,0.006951741604883693,0.006951741604883693,0.006951741604883693,0.006951741604883693,0.006951741604883693,0.006951741604883693
0.007138356557372447,0.007138356557372447,0.007138356557372447,0.007138356557372447,0.007138356557372447,0.007138356557372447,0.007138356557372447,0.007138356557372447,0.007138356557372447,0.007138356557372447,0.007138356557372447,0.007138356557372447
0.007324870058013732,0.007324870058013732,0.007324870058013732,0.007324870058013732,0.007324870058013732,0.007324870058013732,0.007324870058013732,0.007324870058013732,0.007324870058013732,0.007324870058013732,0.007324870058013732,0.007324870058013732
0.007511279456037853,0.007511279456037853,0.007511279456037853,0.007511279456037853,0.007511279456037853,0.007511279456037853,0.007511279456037853,0.007511279456037853,0.007511279456037853,0.007511279456037853,0.007511279456037853,0.007511279456037853
0.007697582102154647,0.007697582102154647,0.007697582102154647,0.007697582102154647,0.007697582102154647,0.007697582102154647,0.007697582102154647,0.007697582102154647,0.007697582102154647,0.007697582102154647,0.007697582102154647,0.007697582102154647
0.00788377534859113,0.00788377534859113,0.00788377534859113,0.00788377534859113,0.00788377534859113,0.00788377534859113,0.00788377534859113,0.00788377534859113,0.00788377534859113,0.00788377534859113,0.00788377534859113,0.00788377534859113
0.008069856549129135,0.008069856549129135,0.008069856549129135,0.008069856549129135,0.008069856549129135,0.008069856549129135,0.008069856549129135,0.008069856549129135,0.008069856549129135,0.008069856549129135,0.008069856549129135,0.008069856549129135
0.008255823059142903,0.008255823059142903,0.008255823059142903,0.008255823059142903,0.008255823059142903,0.008255823059142903,0.008255823059142903,0.008255823059142903,0.008255823059142903,0.008255823059142903,0.008255823059142903,0.008255823059142903
0.008441672235636693,0.008441672235636693,0.008441672235636693,0.008441672235636693,0.008441672235636693,0.008441672235636693,0.008441672235636693,0.008441672235636693,0.008441672235636693,0.008441672235636693,0.008441672235636693,0.008441672235636693
0.00862740143728233,0.00862740143728233,0.00862740143728233,0.00862740143728233,0.00862740143728233,0.00862740143728233,0.00862740143728233,0.00862740143728233,0.00862740143728233,0.00862740143728233,0.00862740143728233,0.00862740143728233
0.008813008024456745,0.008813008024456745,0.008813008024456745,0.008813008024456745,0.008813008024456745,0.008813008024456745,0.008813008024456745,0.008813008024456745,0.008813008024456745,0.008813008024456745,0.008813008024456745,0.008813008024456745
0.00899848935927949,0.00899848935927949,0.00899848935927949,0.00899848935927949,0.00899848935927949,0.00899848935927949,0.00899848935927949,0.00899848935927949,0.00899848935927949,0.00899848935927949,0.00899848935927949,0.00899848935927949
0.009183842805650237,0.009183842805650237,0.009183842805650237,0.009183842805650237,0.009183842805650237,0.009183842805650237,0.009183842805650237,0.009183842805650237,0.009183842805650237,0.009183842805650237,0.009183842805650237,0.009183842805650237
0.009369065729286231,0.009369065729286231,0.009369065729286231,0.009369065729286231,0.009369065729286231,0.009369065729286231,0.009369065729286231,0.009369065729286231,0.009369065729286231,0.009369065729286231,0.009369065729286231,0.009369065729286231
0.009554155497759736,0.009554155497759736,0.009554155497759736,0.009554155497759736,0.009554155497759736,0.009554155497759736,0.009554155497759736,0.009554155497759736,0.009554155497759736,0.009554155497759736,0.009554155497759736,0.009554155497759736
0.009739109480535444,0.009739109480535444,0.009739109480535444,0.009739109480535444,0.009739109480535444,0.009739109480535444,0.009739109480535444,0.009739109480535444,0.009739109480535444,0.009739109480535444,0.009739109480535444,0.009739109480535444
0.009923925049007862,0.009923925049007862,0.009923925049007862,0.009923925049007862,0.009923925049007862,0.009923925049007862,0.009923925049007862,0.009923925049007862,0.009923925049007862,0.009923925049007862,0.009923925049007862,0.009923925049007862
0.010108599576538676,0.010108599576538676,0.010108599576538676,0.010108599576538676,0.010108599576538676,0.010108599576538676,0.010108599576538676,0.010108599576538676,0.010108599576538676,0.010108599576538676,0.010108599576538676,0.010108599576538676
0.010293130438494067,0.010293130438494067,0.010293130438494067,0.010293130438494067,0.010293130438494067,0.010293130438494067,0.010293130438494067,0.010293130438494067,0.010293130438494067,0.010293130438494067,0.010293130438494067,0.010293130438494067
0.01047751501228203,0.01047751501228203,0.01047751501228203,0.01047751501228203,0.01047751501228203,0.01047751501228203,0.01047751501228203,0.01047751501228203,0.01047751501228203,0.01047751501228203,0.01047751501228203,0.01047751501228203
0.01066175067738963,0.01066175067738963,0.01066175067738963,0.01066175067738963,0.01066175067738963,0.01066175067738963,0.01066175067738963,0.01066175067738963,0.01066175067738963,0.01066175067738963,0.01066175067738963,0.01066175067738963
0.010845834815420265,0.010845834815420265,0.010845834815420265,0.010845834815420265,0.010845834815420265,0.010845834815420265,0.010845834815420265,0.010845834815420265,0.010845834815420265,0.010845834815420265,0.010845834815420265,0.010845834815420265
0.011029764810130857,0.011029764810130857,0.011029764810130857,0.011029764810130857,0.011029764810130857,0.011029764810130857,0.011029764810130857,0.011029764810130857,0.011029764810130857,0.011029764810130857,0.011029764810130857,0.011029764810130857
0.011213538047469059,0.011213538047469059,0.011213538047469059,0.011213538047469059,0.011213538047469059,0.011213538047469059,0.011213538047469059,0.011213538047469059,0.011213538047469059,0.011213538047469059,0.011213538047469059,0.011213538047469059
0.01139715191561038,0.01139715191561038,0.01139715191561038,0.01139715191561038,0.01139715191561038,0.01139715191561038,0.01139715191561038,0.01139715191561038,0.01139715191561038,0.01139715191561038,0.01139715191561038,0.01139715191561038
0.011580603804995322,0.011580603804995322,0.011580603804995322,0.011580603804995322,0.011580603804995322,0.011580603804995322,0.011580603804995322,0.011580603804995322,0.011580603804995322,0.011580603804995322,0.011580603804995322,0.011580603804995322
0.011763891108366469,0.011763891108366469,0.011763891108366469,0.011763891108366469,0.011763891108366469,0.011763891108366469,0.011763891108366469,0.011763891108366469,0.011763891108366469,0.011763891108366469,0.011763891108366469,0.011763891108366469
0.01194701122080553,0.01194701122080553,0.01194701122080553,0.01194701122080553,0.01194701122080553,0.01194701122080553,0.01194701122080553,0.01194701122080553,0.01194701122080553,0.01194701122080553,0.01194701122080553,0.01194701122080553
0.01212996153977037,0.01212996153977037,0.01212996153977037,0.01212996153977037,0.01212996153977037,0.01212996153977037,0.01212996153977037,0.01212996153977037,0.01212996153977037,0.01212996153977037,0.01212996153977037,0.01212996153977037
0.012312739465131999,0.012312739465131999,0.012312739465131999,0.012312739465131999,0.012312739465131999,0.012312739465131999,0.012312739465131999,0.012312739465131999,0.012312739465131999,0.012312739465131999,0.012312739465131999,0.012312739465131999
0.012495342399211514,0.012495342399211514,0.012495342399211514,0.012495342399211514,0.012495342399211514,0.012495342399211514,0.012495342399211514,0.012495342399211514,0.012495342399211514,0.012495342399211514,0.012495342399211514,0.012495342399211514
0.01267776774681703,0.01267776774681703,0.01267776774681703,0.01267776774681703,0.01267776774681703,0.01267776774681703,0.01267776774681703,0.01267776774681703,0.01267776774681703,0.01267776774681703,0.01267776774681703,0.01267776774681703
0.012860012915280553,0.012860012915280553,0.012860012915280553,0.012860012915280553,0.012860012915280553,0.012860012915280553,0.012860012915280553,0.012860012915280553,0.012860012915280553,0.012860012915280553,0.012860012915280553,0.012860012915280553
0.013042075314494847,0.013042075314494847,0.013042075314494847,0.013042075314494847,0.013042075314494847,0.013042075314494847,0.013042075314494847,0.013042075314494847,0.013042075314494847,0.013042075314494847,0.013042075314494847,0.013042075314494847
0.013223952356950217,0.013223952356950217,0.013223952356950217,0.013223952356950217,0.013223952356950217,0.013223952356950217,0.013223952356950217,0.013223952356950217,0.013223952356950217,0.013223952356950217,0.013223952356950217,0.013223952356950217
0.01340564145777131,0.01340564145777131,0.01340564145777131,0.01340564145777131,0.01340564145777131,0.01340564145777131,0.01340564145777131,0.01340564145777131,0.01340564145777131,0.01340564145777131,0.01340564145777131,0.01340564145777131
0.013587140034753826,0.013587140034753826,0.013587140034753826,0.013587140034753826,0.013587140034753826,0.013587140034753826,0.013587140034753826,0.013587140034753826,0.013587140034753826,0.013587140034753826,0.013587140034753826,0.013587140034753826
0.013768445508401245,0.013768445508401245,0.013768445508401245,0.013768445508401245,0.013768445508401245,0.013768445508401245,0.013768445508401245,0.013768445508401245,0.013768445508401245,0.013768445508401245,0.013768445508401245,0.013768445508401245
0.013949555301961465,0.013949555301961465,0.013949555301961465,0.013949555301961465,0.013949555301961465,0.013949555301961465,0.013949555301961465,0.013949555301961465,0.013949555301961465,0.013949555301961465,0.013949555301961465,0.013949555301961465
0.014130466841463424,0.014130466841463424,0.014130466841463424,0.014130466841463424,0.014130466841463424,0.014130466841463424,0.014130466841463424,0.014130466841463424,0.014130466841463424,0.014130466841463424,0.014130466841463424,0.014130466841463424
0.014311177555753705,0.014311177555753705,0.014311177555753705,0.014311177555753705,0.014311177555753705,0.014311177555753705,0.014311177555753705,0.014311177555753705,0.014311177555753705,0.014311177555753705,0.014311177555753705,0.014311177555753705
0.014491684876533052,0.014491684876533052,0.014491684876533052,0.014491684876533052,0.014491684876533052,0.014491684876533052,0.014491684876533052,0.014491684876533052,0.014491684876533052,0.014491684876533052,0.014491684876533052,0.014491684876533052
0.014671986238392882,0.014671986238392882,0.014671986238392882,0.014671986238392882,0.014671986238392882,0.014671986238392882,0.014671986238392882,0.014671986238392882,0.014671986238392882,0.014671986238392882,0.014671986238392882,0.014671986238392882
0.014852079078851747,0.014852079078851747,0.014852079078851747,0.014852079078851747,0.014852079078851747,0.014852079078851747,0.014852079078851747,0.014852079078851747,0.014852079078851747,0.014852079078851747,0.014852079078851747,0.014852079078851747
0.015031960838391742,0.015031960838391742,0.015031960838391742,0.015031960838391742,0.015031960838391742,0.015031960838391742,0.015031960838391742,0.015031960838391742,0.015031960838391742,0.015031960838391742,0.015031960838391742,0.015031960838391742
0.015211628960494904,0.015211628960494904,0.015211628960494904,0.015211628960494904,0.015211628960494904,0.015211628960494904,0.015211628960494904,0.015211628960494904,0.015211628960494904,0.015211628960494904,0.015211628960494904,0.015211628960494904
0.015391080891679513,0.015391080891679513,0.015391080891679513,0.015391080891679513,0.015391080891679513,0.015391080891679513,0.015391080891679513,0.015391080891679513,0.015391080891679513,0.015391080891679513,0.015391080891679513,0.015391080891679513
0.015570314081536411,0.015570314081536411,0.015570314081536411,0.015570314081536411,0.015570314081536411,0.015570314081536411,0.015570314081536411,0.015570314081536411,0.015570314081536411,0.015570314081536411,0.015570314081536411,0.015570314081536411
0.01574932598276524,0.01574932598276524,0.01574932598276524,0.01574932598276524,0.01574932598276524,0.01574932598276524,0.01574932598276524,0.01574932598276524,0.01574932598276524,0.01574932598276524,0.01574932598276524,0.01574932598276524
0.015928114051210637,0.015928114051210637,0.015928114051210637,0.015928114051210637,0.015928114051210637,0.015928114051210637,0.015928114051210637,0.015928114051210637,0.015928114051210637,0.015928114051210637,0.015928114051210637,0.015928114051210637
0.016106675745898403,0.016106675745898403,0.016106675745898403,0.016106675745898403,0.016106675745898403,0.016106675745898403,0.016106675745898403,0.016106675745898403,0.016106675745898403,0.016106675745898403,0.016106675745898403,0.016106675745898403
0.016285008529071606,0.016285008529071606,0.016285008529071606,0.016285008529071606,0.016285008529071606,0.016285008529071606,0.016285008529071606,0.016285008529071606,0.016285008529071606,0.016285008529071606,0.016285008529071606,0.016285008529071606
0.01646310986622666,0.01646310986622666,0.01646310986622666,0.01646310986622666,0.01646310986622666,0.01646310986622666,0.01646310986622666,0.01646310986622666,0.01646310986622666,0.01646310986622666,0.01646310986622666,0.01646310986622666
0.016640977226149333,0.016640977226149333,0.016640977226149333,0.016640977226149333,0.016640977226149333,0.016640977226149333,0.016640977226149333,0.016640977226149333,0.016640977226149333,0.016640977226149333,0.016640977226149333,0.016640977226149333
0.01681860808095073,0.01681860808095073,0.01681860808095073,0.01681860808095073,0.01681860808095073,0.01681860808095073,0.01681860808095073,0.01681860808095073,0.01681860808095073,0.01681860808095073,0.01681860808095073,0.01681860808095073
0.01699599990610322,0.01699599990610322,0.01699599990610322,0.01699599990610322,0.01699599990610322,0.01699599990610322,0.01699599990610322,0.01699599990610322,0.01699599990610322,0.01699599990610322,0.01699599990610322,0.01699599990610322
0.01717315018047631,0.01717315018047631,0.01717315018047631,0.01717315018047631,0.01717315018047631,0.01717315018047631,0.01717315018047631,0.01717315018047631,0.01717315018047631,0.01717315018047631,0.01717315018047631,0.01717315018047631
0.017350056386372475,0.017350056386372475,0.017350056386372475,0.017350056386372475,0.017350056386372475,0.017350056386372475,0.017350056386372475,0.017350056386372475,0.017350056386372475,0.017350056386372475,0.017350056386372475,0.017350056386372475
0.01752671600956295,0.01752671600956295,0.01752671600956295,0.01752671600956295,0.01752671600956295,0.01752671600956295,0.01752671600956295,0.01752671600956295,0.01752671600956295,0.01752671600956295,0.01752671600956295,0.01752671600956295
0.01770312653932345,0.01770312653932345,0.01770312653932345,0.01770312653932345,0.01770312653932345,0.01770312653932345,0.01770312653932345,0.01770312653932345,0.01770312653932345,0.01770312653932345,0.01770312653932345,0.01770312653932345
0.017879285468469865,0.017879285468469865,0.017879285468469865,0.017879285468469865,0.017879285468469865,0.017879285468469865,0.017879285468469865,0.017879285468469865,0.017879285468469865,0.017879285468469865,0.017879285468469865,0.017879285468469865
0.018055190293393874,0.018055190293393874,0.018055190293393874,0.018055190293393874,0.018055190293393874,0.018055190293393874,0.018055190293393874,0.018055190293393874,0.018055190293393874,0.018055190293393874,0.018055190293393874,0.018055190293393874
0.018230838514098558,0.018230838514098558,0.018230838514098558,0.018230838514098558,0.018230838514098558,0.018230838514098558,0.018230838514098558,0.018230838514098558,0.018230838514098558,0.018230838514098558,0.018230838514098558,0.018230838514098558
0.0184062276342339,0.0184062276342339,0.0184062276342339,0.0184062276342339,0.0184062276342339,0.0184062276342339,0.0184062276342339,0.0184062276342339,0.0184062276342339,0.0184062276342339,0.0184062276342339,0.0184062276342339
0.018581355161132275,0.018581355161132275,0.018581355161132275,0.018581355161132275,0.018581355161132275,0.018581355161132275,0.018581355161132275,0.018581355161132275,0.018581355161132275,0.018581355161132275,0.018581355161132275,0.018581355161132275
0.01875621860584388,0.01875621860584388,0.01875621860584388,0.01875621860584388,0.01875621860584388,0.01875621860584388,0.01875621860584388,0.01875621860584388,0.01875621860584388,0.01875621860584388,0.01875621860584388,0.01875621860584388
0.018930815483172114,0.018930815483172114,0.018930815483172114,0.018930815483172114,0.018930815483172114,0.018930815483172114,0.018930815483172114,0.018930815483172114,0.018930815483172114,0.018930815483172114,0.018930815483172114,0.018930815483172114
0.01910514331170887,0.01910514331170887,0.01910514331170887,0.01910514331170887,0.01910514331170887,0.01910514331170887,0.01910514331170887,0.01910514331170887,0.01910514331170887,0.01910514331170887,0.01910514331170887,0.01910514331170887
0.019279199613869827,0.019279199613869827,0.019279199613869827,0.019279199613869827,0.019279199613869827,0.019279199613869827,0.019279199613869827,0.019279199613869827,0.019279199613869827,0.019279199613869827,0.019279199613869827,0.019279199613869827
0.019452981915929663,0.019452981915929663,0.019452981915929663,0.019452981915929663,0.019452981915929663,0.019452981915929663,0.019452981915929663,0.019452981915929663,0.019452981915929663,0.019452981915929663,0.019452981915929663,0.019452981915929663
0.019626487748057198,0.019626487748057198,0.019626487748057198,0.019626487748057198,0.019626487748057198,0.019626487748057198,0.019626487748057198,0.019626487748057198,0.019626487748057198,0.019626487748057198,0.019626487748057198,0.019626487748057198
0.019799714644350496,0.019799714644350496,0.019799714644350496,0.019799714644350496,0.019799714644350496,0.019799714644350496,0.019799714644350496,0.019799714644350496,0.019799714644350496,0.019799714644350496,0.019799714644350496,0.019799714644350496
0.019972660142871926,0.019972660142871926,0.019972660142871926,0.019972660142871926,0.019972660142871926,0.019972660142871926,0.019972660142871926,0.019972660142871926,0.019972660142871926,0.019972660142871926,0.019972660142871926,0.019972660142871926
0.020145321785683134,0.020145321785683134,0.020145321785683134,0.020145321785683134,0.020145321785683134,0.020145321785683134,0.020145321785683134,0.020145321785683134,0.020145321785683134,0.020145321785683134,0.020145321785683134,0.020145321785683134
0.020317697118879995,0.020317697118879995,0.020317697118879995,0.020317697118879995,0.020317697118879995,0.020317697118879995,0.020317697118879995,0.020317697118879995,0.020317697118879995,0.020317697118879995,0.020317697118879995,0.020317697118879995
0.020489783692627463,0.020489783692627463,0.020489783692627463,0.020489783692627463,0.020489783692627463,0.020489783692627463,0.020489783692627463,0.020489783692627463,0.020489783692627463,0.020489783692627463,0.020489783692627463,0.020489783692627463
0.020661579061194417,0.020661579061194417,0.020661579061194417,0.020661579061194417,0.020661579061194417,0.020661579061194417,0.020661579061194417,0.020661579061194417,0.020661579061194417,0.020661579061194417,0.020661579061194417,0.020661579061194417
0.020833080782988397,0.020833080782988397,0.020833080782988397,0.020833080782988397,0.020833080782988397,0.020833080782988397,0.020833080782988397,0.020833080782988397,0.020833080782988397,0.020833080782988397,0.020833080782988397,0.020833080782988397
0.021004286420590313,0.021004286420590313,0.021004286420590313,0.021004286420590313,0.021004286420590313,0.021004286420590313,0.021004286420590313,0.021004286420590313,0.021004286420590313,0.021004286420590313,0.021004286420590313,0.021004286420590313
0.021175193540789096,0.021175193540789096,0.021175193540789096,0.021175193540789096,0.021175193540789096,0.021175193540789096,0.021175193540789096,0.021175193540789096,0.021175193540789096,0.021175193540789096,0.021175193540789096,0.021175193540789096
0.02134579971461626,0.02134579971461626,0.02134579971461626,0.02134579971461626,0.02134579971461626,0.02134579971461626,0.02134579971461626,0.02134579971461626,0.02134579971461626,0.02134579971461626,0.02134579971461626,0.02134579971461626
0.02151610251738044,0.02151610251738044,0.02151610251738044,0.02151610251738044,0.02151610251738044,0.02151610251738044,0.02151610251738044,0.02151610251738044,0.02151610251738044,0.02151610251738044,0.02151610251738044,0.02151610251738044
0.02168609952870184,0.02168609952870184,0.02168609952870184,0.02168609952870184,0.02168609952870184,0.02168609952870184,0.02168609952870184,0.02168609952870184,0.02168609952870184,0.02168609952870184,0.02168609952870184,0.02168609952870184
0.021855788332546644,0.021855788332546644,0.021855788332546644,0.021855788332546644,0.021855788332546644,0.021855788332546644,0.021855788332546644,0.021855788332546644,0.021855788332546644,0.021855788332546644,0.021855788332546644,0.021855788332546644
0.02202516651726134,0.02202516651726134,0.02202516651726134,0.02202516651726134,0.02202516651726134,0.02202516651726134,0.02202516651726134,0.02202516651726134,0.02202516651726134,0.02202516651726134,0.02202516651726134,0.02202516651726134
0.022194231675607003,0.022194231675607003,0.022194231675607003,0.022194231675607003,0.022194231675607003,0.022194231675607003,0.022194231675607003,0.022194231675607003,0.022194231675607003,0.022194231675607003,0.022194231675607003,0.022194231675607003
0.022362981404793505,0.022362981404793505,0.022362981404793505,0.022362981404793505,0.022362981404793505,0.022362981404793505,0.022362981404793505,0.022362981404793505,0.022362981404793505,0.022362981404793505,0.022362981404793505,0.022362981404793505
0.022531413306513665,0.022531413306513665,0.022531413306513665,0.022531413306513665,0.022531413306513665,0.022531413306513665,0.022531413306513665,0.022531413306513665,0.022531413306513665,0.022531413306513665,0.022531413306513665,0.022531413306513665
0.02269952498697734,0.02269952498697734,0.02269952498697734,0.02269952498697734,0.02269952498697734,0.02269952498697734,0.02269952498697734,0.02269952498697734,0.02269952498697734,0.02269952498697734,0.02269952498697734,0.02269952498697734
0.02286731405694543,0.02286731405694543,0.02286731405694543,0.02286731405694543,0.02286731405694543,0.02286731405694543,0.02286731405694543,0.02286731405694543,0.02286731405694543,0.02286731405694543,0.02286731405694543,0.02286731405694543
0.023034778131763852,0.023034778131763852,0.023034778131763852,0.023034778131763852,0.023034778131763852,0.023034778131763852,0.023034778131763852,0.023034778131763852,0.023034778131763852,0.023034778131763852,0.023034778131763852,0.023034778131763852
0.023201914831397417,0.023201914831397417,0.023201914831397417,0.023201914831397417,0.023201914831397417,0.023201914831397417,0.023201914831397417,0.023201914831397417,0.023201914831397417,0.023201914831397417,0.023201914831397417,0.023201914831397417
0.023368721780463668,0.023368721780463668,0.023368721780463668,0.023368721780463668,0.023368721780463668,0.023368721780463668,0.023368721780463668,0.023368721780463668,0.023368721780463668,0.023368721780463668,0.023368721780463668,0.023368721780463668
0.023535196608266626,0.023535196608266626,0.023535196608266626,0.023535196608266626,0.023535196608266626,0.023535196608266626,0.023535196608266626,0.023535196608266626,0.023535196608266626,0.023535196608266626,0.023535196608266626,0.023535196608266626
0.023701336948830504,0.023701336948830504,0.023701336948830504,0.023701336948830504,0.023701336948830504,0.023701336948830504,0.023701336948830504,0.023701336948830504,0.023701336948830504,0.023701336948830504,0.023701336948830504,0.023701336948830504
0.023867140440933302,0.023867140440933302,0.023867140440933302,0.023867140440933302,0.023867140440933302,0.023867140440933302,0.023867140440933302,0.023867140440933302,0.023867140440933302,0.023867140440933302,0.023867140440933302,0.023867140440933302
0.02403260472814039,0.02403260472814039,0.02403260472814039,0.02403260472814039,0.02403260472814039,0.02403260472814039,0.02403260472814039,0.02403260472814039,0.02403260472814039,0.02403260472814039,0.02403260472814039,0.02403260472814039
0.024197727458837998,0.024197727458837998,0.024197727458837998,0.024197727458837998,0.024197727458837998,0.024197727458837998,0.024197727458837998,0.024197727458837998,0.024197727458837998,0.024197727458837998,0.024197727458837998,0.024197727458837998
0.024362506286266614,0.024362506286266614,0.024362506286266614,0.024362506286266614,0.024362506286266614,0.024362506286266614,0.024362506286266614,0.024362506286266614,0.024362506286266614,0.024362506286266614,0.024362506286266614,0.024362506286266614
0.024526938868554372,0.024526938868554372,0.024526938868554372,0.024526938868554372,0.024526938868554372,0.024526938868554372,0.024526938868554372,0.024526938868554372,0.024526938868554372,0.024526938868554372,0.024526938868554372,0.024526938868554372
0.024691022868750297,0.024691022868750297,0.024691022868750297,0.024691022868750297,0.024691022868750297,0.024691022868750297,0.024691022868750297,0.024691022868750297,0.024691022868750297,0.024691022868750297,0.024691022868750297,0.024691022868750297
0.024854755954857543,0.024854755954857543,0.024854755954857543,0.024854755954857543,0.024854755954857543,0.024854755954857543,0.024854755954857543,0.024854755954857543,0.024854755954857543,0.024854755954857543,0.024854755954857543,0.024854755954857543
0.025018135799866545,0.025018135799866545,0.025018135799866545,0.025018135799866545,0.025018135799866545,0.025018135799866545,0.025018135799866545,0.025018135799866545,0.025018135799866545,0.025018135799866545,0.025018135799866545,0.025018135799866545
0.025181160081788043,0.025181160081788043,0.025181160081788043,0.025181160081788043,0.025181160081788043,0.025181160081788043,0.025181160081788043,0.025181160081788043,0.025181160081788043,0.025181160081788043,0.025181160081788043,0.025181160081788043
0.02534382648368615,0.02534382648368615,0.02534382648368615,0.02534382648368615,0.02534382648368615,0.02534382648368615,0.02534382648368615,0.02534382648368615,0.02534382648368615,0.02534382648368615,0.02534382648368615,0.02534382648368615
0.02550613269371123,0.02550613269371123,0.02550613269371123,0.02550613269371123,0.02550613269371123,0.02550613269371123,0.02550613269371123,0.02550613269371123,0.02550613269371123,0.02550613269371123,0.02550613269371123,0.02550613269371123
0.025668076405132786,0.025668076405132786,0.025668076405132786,0.025668076405132786,0.025668076405132786,0.025668076405132786,0.025668076405132786,0.025668076405132786,0.025668076405132786,0.025668076405132786,0.025668076405132786,0.025668076405132786
0.025829655316372185,0.025829655316372185,0.025829655316372185,0.025829655316372185,0.025829655316372185,0.025829655316372185,0.025829655316372185,0.025829655316372185,0.025829655316372185,0.025829655316372185,0.025829655316372185,0.025829655316372185
0.025990867131035475,0.025990867131035475,0.025990867131035475,0.025990867131035475,0.025990867131035475,0.025990867131035475,0.025990867131035475,0.025990867131035475,0.025990867131035475,0.025990867131035475,0.025990867131035475,0.025990867131035475
0.026151709557945903,0.026151709557945903,0.026151709557945903,0.026151709557945903,0.026151709557945903,0.026151709557945903,0.026151709557945903,0.026151709557945903,0.026151709557945903,0.026151709557945903,0.026151709557945903,0.026151709557945903
0.026312180311176565,0.026312180311176565,0.026312180311176565,0.026312180311176565,0.026312180311176565,0.026312180311176565,0.026312180311176565,0.026312180311176565,0.026312180311176565,0.026312180311176565,0.026312180311176565,0.026312180311176565
0.026472277110082862,0.026472277110082862,0.026472277110082862,0.026472277110082862,0.026472277110082862,0.026472277110082862,0.026472277110082862,0.026472277110082862,0.026472277110082862,0.026472277110082862,0.026472277110082862,0.026472277110082862
0.02663199767933489,0.02663199767933489,0.02663199767933489,0.02663199767933489,0.02663199767933489,0.02663199767933489,0.02663199767933489,0.02663199767933489,0.02663199767933489,0.02663199767933489,0.02663199767933489,0.02663199767933489
0.026791339748949834,0.026791339748949834,0.026791339748949834,0.026791339748949834,0.026791339748949834,0.026791339748949834,0.026791339748949834,0.026791339748949834,0.026791339748949834,0.026791339748949834,0.026791339748949834,0.026791339748949834
0.026950301054324166,0.026950301054324166,0.026950301054324166,0.026950301054324166,0.026950301054324166,0.026950301054324166,0.026950301054324166,0.026950301054324166,0.026950301054324166,0.026950301054324166,0.026950301054324166,0.026950301054324166
0.027108879336265893,0.027108879336265893,0.027108879336265893,0.027108879336265893,0.027108879336265893,0.027108879336265893,0.027108879336265893,0.027108879336265893,0.027108879336265893,0.027108879336265893,0.027108879336265893,0.027108879336265893
0.02726707234102659,0.02726707234102659,0.02726707234102659,0.02726707234102659,0.02726707234102659,0.02726707234102659,0.02726707234102659,0.02726707234102659,0.02726707234102659,0.02726707234102659,0.02726707234102659,0.02726707234102659
0.027424877820333524,0.027424877820333524,0.027424877820333524,0.027424877820333524,0.027424877820333524,0.027424877820333524,0.027424877820333524,0.027424877820333524,0.027424877820333524,0.027424877820333524,0.027424877820333524,0.027424877820333524
0.027582293531421512,0.027582293531421512,0.027582293531421512,0.027582293531421512,0.027582293531421512,0.027582293531421512,0.027582293531421512,0.027582293531421512,0.027582293531421512,0.027582293531421512,0.027582293531421512,0.027582293531421512
0.02773931723706487,0.02773931723706487,0.02773931723706487,0.02773931723706487,0.02773931723706487,0.02773931723706487,0.02773931723706487,0.02773931723706487,0.02773931723706487,0.02773931723706487,0.02773931723706487,0.02773931723706487
0.02789594670560916,0.02789594670560916,0.02789594670560916,0.02789594670560916,0.02789594670560916,0.02789594670560916,0.02789594670560916,0.02789594670560916,0.02789594670560916,0.02789594670560916,0.02789594670560916,0.02789594670560916
0.02805217971100294,0.02805217971100294,0.02805217971100294,0.02805217971100294,0.02805217971100294,0.02805217971100294,0.02805217971100294,0.02805217971100294,0.02805217971100294,0.02805217971100294,0.02805217971100294,0.02805217971100294
0.028208014032829378,0.028208014032829378,0.028208014032829378,0.028208014032829378,0.028208014032829378,0.028208014032829378,0.028208014032829378,0.028208014032829378,0.028208014032829378,0.028208014032829378,0.028208014032829378,0.028208014032829378
0.02836344745633783,0.02836344745633783,0.02836344745633783,0.02836344745633783,0.02836344745633783,0.02836344745633783,0.02836344745633783,0.02836344745633783,0.02836344745633783,0.02836344745633783,0.02836344745633783,0.02836344745633783
0.02851847777247528,0.02851847777247528,0.02851847777247528,0.02851847777247528,0.02851847777247528,0.02851847777247528,0.02851847777247528,0.02851847777247528,0.02851847777247528,0.02851847777247528,0.02851847777247528,0.02851847777247528
0.028673102777917778,0.028673102777917778,0.028673102777917778,0.028673102777917778,0.028673102777917778,0.028673102777917778,0.028673102777917778,0.028673102777917778,0.028673102777917778,0.028673102777917778,0.028673102777917778,0.028673102777917778
0.028827320275101737,0.028827320275101737,0.028827320275101737,0.028827320275101737,0.028827320275101737,0.028827320275101737,0.028827320275101737,0.028827320275101737,0.028827320275101737,0.028827320275101737,0.028827320275101737,0.028827320275101737
0.028981128072255165,0.028981128072255165,0.028981128072255165,0.028981128072255165,0.028981128072255165,0.028981128072255165,0.028981128072255165,0.028981128072255165,0.028981128072255165,0.028981128072255165,0.028981128072255165,0.028981128072255165
0.029134523983428806,0.029134523983428806,0.029134523983428806,0.029134523983428806,0.029134523983428806,0.029134523983428806,0.029134523983428806,0.029134523983428806,0.029134523983428806,0.029134523983428806,0.029134523983428806,0.029134523983428806
0.029287505828527217,0.029287505828527217,0.029287505828527217,0.029287505828527217,0.029287505828527217,0.029287505828527217,0.029287505828527217,0.029287505828527217,0.029287505828527217,0.029287505828527217,0.029287505828527217,0.029287505828527217
0.02944007143333976,0.02944007143333976,0.02944007143333976,0.02944007143333976,0.02944007143333976,0.02944007143333976,0.02944007143333976,0.02944007143333976,0.02944007143333976,0.02944007143333976,0.02944007143333976,0.02944007143333976
0.02959221862957148,0.02959221862957148,0.02959221862957148,0.02959221862957148,0.02959221862957148,0.02959221862957148,0.02959221862957148,0.02959221862957148,0.02959221862957148,0.02959221862957148,0.02959221862957148,0.02959221862957148
0.02974394525487394,0.02974394525487394,0.02974394525487394,0.02974394525487394,0.02974394525487394,0.02974394525487394,0.02974394525487394,0.02974394525487394,0.02974394525487394,0.02974394525487394,0.02974394525487394,0.02974394525487394
0.029895249152875943,0.029895249152875943,0.029895249152875943,0.029895249152875943,0.029895249152875943,0.029895249152875943,0.029895249152875943,0.029895249152875943,0.029895249152875943,0.029895249152875943,0.029895249152875943,0.029895249152875943
0.030046128173214198,0.030046128173214198,0.030046128173214198,0.030046128173214198,0.030046128173214198,0.030046128173214198,0.030046128173214198,0.030046128173214198,0.030046128173214198,0.030046128173214198,0.030046128173214198,0.030046128173214198
0.030196580171563847,0.030196580171563847,0.030196580171563847,0.030196580171563847,0.030196580171563847,0.030196580171563847,0.030196580171563847,0.030196580171563847,0.030196580171563847,0.030196580171563847,0.030196580171563847,0.030196580171563847
0.030346603009668967,0.030346603009668967,0.030346603009668967,0.030346603009668967,0.030346603009668967,0.030346603009668967,0.030346603009668967,0.030346603009668967,0.030346603009668967,0.030346603009668967,0.030346603009668967,0.030346603009668967
0.03049619455537296,0.03049619455537296,0.03049619455537296,0.03049619455537296,0.03049619455537296,0.03049619455537296,0.03049619455537296,0.03049619455537296,0.03049619455537296,0.03049619455537296,0.03049619455537296,0.03049619455537296
0.03064535268264882,0.03064535268264882,0.03064535268264882,0.03064535268264882,0.03064535268264882,0.03064535268264882,0.03064535268264882,0.03064535268264882,0.03064535268264882,0.03064535268264882,0.03064535268264882,0.03064535268264882
0.030794075271629424,0.030794075271629424,0.030794075271629424,0.030794075271629424,0.030794075271629424,0.030794075271629424,0.030794075271629424,0.030794075271629424,0.030794075271629424,0.030794075271629424,0.030794075271629424,0.030794075271629424
0.03094236020863756,0.03094236020863756,0.03094236020863756,0.03094236020863756,0.03094236020863756,0.03094236020863756,0.03094236020863756,0.03094236020863756,0.03094236020863756,0.03094236020863756,0.03094236020863756,0.03094236020863756
0.03109020538621606,0.03109020538621606,0.03109020538621606,0.03109020538621606,0.03109020538621606,0.03109020538621606,0.03109020538621606,0.03109020538621606,0.03109020538621606,0.03109020538621606,0.03109020538621606,0.03109020538621606
0.031237608703157678,0.031237608703157678,0.031237608703157678,0.031237608703157678,0.031237608703157678,0.031237608703157678,0.031237608703157678,0.031237608703157678,0.031237608703157678,0.031237608703157678,0.031237608703157678,0.031237608703157678
0.031384568064535025,0.031384568064535025,0.031384568064535025,0.031384568064535025,0.031384568064535025,0.031384568064535025,0.031384568064535025,0.031384568064535025,0.031384568064535025,0.031384568064535025,0.031384568064535025,0.031384568064535025
0.03153108138173026,0.03153108138173026,0.03153108138173026,0.03153108138173026,0.03153108138173026,0.03153108138173026,0.03153108138173026,0.03153108138173026,0.03153108138173026,0.03153108138173026,0.03153108138173026,0.03153108138173026
0.03167714657246484,0.03167714657246484,0.03167714657246484,0.03167714657246484,0.03167714657246484,0.03167714657246484,0.03167714657246484,0.03167714657246484,0.03167714657246484,0.03167714657246484,0.03167714657246484,0.03167714657246484
0.03182276156082911,0.03182276156082911,0.03182276156082911,0.03182276156082911,0.03182276156082911,0.03182276156082911,0.03182276156082911,0.03182276156082911,0.03182276156082911,0.03182276156082911,0.03182276156082911,0.03182276156082911
0.03196792427731174,0.03196792427731174,0.03196792427731174,0.03196792427731174,0.03196792427731174,0.03196792427731174,0.03196792427731174,0.03196792427731174,0.03196792427731174,0.03196792427731174,0.03196792427731174,0.03196792427731174
0.03211263265882922,0.03211263265882922,0.03211263265882922,0.03211263265882922,0.03211263265882922,0.03211263265882922,0.03211263265882922,0.03211263265882922,0.03211263265882922,0.03211263265882922,0.03211263265882922,0.03211263265882922
0.03225688464875514,0.03225688464875514,0.03225688464875514,0.03225688464875514,0.03225688464875514,0.03225688464875514,0.03225688464875514,0.03225688464875514,0.03225688464875514,0.03225688464875514,0.03225688464875514,0.03225688464875514
0.03240067819694941,0.03240067819694941,0.03240067819694941,0.03240067819694941,0.03240067819694941,0.03240067819694941,0.03240067819694941,0.03240067819694941,0.03240067819694941,0.03240067819694941,0.03240067819694941,0.03240067819694941
0.032544011259787425,0.032544011259787425,0.032544011259787425,0.032544011259787425,0.032544011259787425,0.032544011259787425,0.032544011259787425,0.032544011259787425,0.032544011259787425,0.032544011259787425,0.032544011259787425,0.032544011259787425
0.03268688180018911,0.03268688180018911,0.03268688180018911,0.03268688180018911,0.03268688180018911,0.03268688180018911,0.03268688180018911,0.03268688180018911,0.03268688180018911,0.03268688180018911,0.03268688180018911,0.03268688180018911
0.03282928778764782,0.03282928778764782,0.03282928778764782,0.03282928778764782,0.03282928778764782,0.03282928778764782,0.03282928778764782,0.03282928778764782,0.03282928778764782,0.03282928778764782,0.03282928778764782,0.03282928778764782
0.03297122719825927,0.03297122719825927,0.03297122719825927,0.03297122719825927,0.03297122719825927,0.03297122719825927,0.03297122719825927,0.03297122719825927,0.03297122719825927,0.03297122719825927,0.03297122719825927,0.03297122719825927
0.033112698014750246,0.033112698014750246,0.033112698014750246,0.033112698014750246,0.033112698014750246,0.033112698014750246,0.033112698014750246,0.033112698014750246,0.033112698014750246,0.033112698014750246,0.033112698014750246,0.033112698014750246
0.033253698226507304,0.033253698226507304,0.033253698226507304,0.033253698226507304,0.033253698226507304,0.033253698226507304,0.033253698226507304,0.033253698226507304,0.033253698226507304,0.033253698226507304,0.033253698226507304,0.033253698226507304
0.03339422582960532,0.03339422582960532,0.03339422582960532,0.03339422582960532,0.03339422582960532,0.03339422582960532,0.03339422582960532,0.03339422582960532,0.03339422582960532,0.03339422582960532,0.03339422582960532,0.03339422582960532
0.033534278826836,0.033534278826836,0.033534278826836,0.033534278826836,0.033534278826836,0.033534278826836,0.033534278826836,0.033534278826836,0.033534278826836,0.033534278826836,0.033534278826836,0.033534278826836
0.033673855227736256,0.033673855227736256,0.033673855227736256,0.033673855227736256,0.033673855227736256,0.033673855227736256,0.033673855227736256,0.033673855227736256,0.033673855227736256,0.033673855227736256,0.033673855227736256,0.033673855227736256
0.033812953048616465,0.033812953048616465,0.033812953048616465,0.033812953048616465,0.033812953048616465,0.033812953048616465,0.033812953048616465,0.033812953048616465,0.033812953048616465,0.033812953048616465,0.033812953048616465,0.033812953048616465
0.033951570312588705,0.033951570312588705,0.033951570312588705,0.033951570312588705,0.033951570312588705,0.033951570312588705,0.033951570312588705,0.033951570312588705,0.033951570312588705,0.033951570312588705,0.033951570312588705,0.033951570312588705
0.03408970504959482,0.03408970504959482,0.03408970504959482,0.03408970504959482,0.03408970504959482,0.03408970504959482,0.03408970504959482,0.03408970504959482,0.03408970504959482,0.03408970504959482,0.03408970504959482,0.03408970504959482
0.03422735529643444,0.03422735529643444,0.03422735529643444,0.03422735529643444,0.03422735529643444,0.03422735529643444,0.03422735529643444,0.03422735529643444,0.03422735529643444,0.03422735529643444,0.03422735529643444,0.03422735529643444
0.034364519096792855,0.034364519096792855,0.034364519096792855,0.034364519096792855,0.034364519096792855,0.034364519096792855,0.034364519096792855,0.034364519096792855,0.034364519096792855,0.034364519096792855,0.034364519096792855,0.034364519096792855
0.03450119450126887,0.03450119450126887,0.03450119450126887,0.03450119450126887,0.03450119450126887,0.03450119450126887,0.03450119450126887,0.03450119450126887,0.03450119450126887,0.03450119450126887,0.03450119450126887,0.03450119450126887
0.03463737956740245,0.03463737956740245,0.03463737956740245,0.03463737956740245,0.03463737956740245,0.03463737956740245,0.03463737956740245,0.03463737956740245,0.03463737956740245,0.03463737956740245,0.03463737956740245,0.03463737956740245
0.034773072359702346,0.034773072359702346,0.034773072359702346,0.034773072359702346,0.034773072359702346,0.034773072359702346,0.034773072359702346,0.034773072359702346,0.034773072359702346,0.034773072359702346,0.034773072359702346,0.034773072359702346
0.03490827094967363,0.03490827094967363,0.03490827094967363,0.03490827094967363,0.03490827094967363,0.03490827094967363,0.03490827094967363,0.03490827094967363,0.03490827094967363,0.03490827094967363,0.03490827094967363,0.03490827094967363
0.03504297341584508,0.03504297341584508,0.03504297341584508,0.03504297341584508,0.03504297341584508,0.03504297341584508,0.03504297341584508,0.03504297341584508,0.03504297341584508,0.03504297341584508,0.03504297341584508,0.03504297341584508
0.03517717784379649,0.03517717784379649,0.03517717784379649,0.03517717784379649,0.03517717784379649,0.03517717784379649,0.03517717784379649,0.03517717784379649,0.03517717784379649,0.03517717784379649,0.03517717784379649,0.03517717784379649
0.035310882326185865,0.035310882326185865,0.035310882326185865,0.035310882326185865,0.035310882326185865,0.035310882326185865,0.035310882326185865,0.035310882326185865,0.035310882326185865,0.035310882326185865,0.035310882326185865,0.035310882326185865
0.03544408496277656,0.03544408496277656,0.03544408496277656,0.03544408496277656,0.03544408496277656,0.03544408496277656,0.03544408496277656,0.03544408496277656,0.03544408496277656,0.03544408496277656,0.03544408496277656,0.03544408496277656
0.03557678386046426,0.03557678386046426,0.03557678386046426,0.03557678386046426,0.03557678386046426,0.03557678386046426,0.03557678386046426,0.03557678386046426,0.03557678386046426,0.03557678386046426,0.03557678386046426,0.03557678386046426
0.03570897713330392,0.03570897713330392,0.03570897713330392,0.03570897713330392,0.03570897713330392,0.03570897713330392,0.03570897713330392,0.03570897713330392,0.03570897713330392,0.03570897713330392,0.03570897713330392,0.03570897713330392
0.03584066290253649,0.03584066290253649,0.03584066290253649,0.03584066290253649,0.03584066290253649,0.03584066290253649,0.03584066290253649,0.03584066290253649,0.03584066290253649,0.03584066290253649,0.03584066290253649,0.03584066290253649
0.035971839296615724,0.035971839296615724,0.035971839296615724,0.035971839296615724,0.035971839296615724,0.035971839296615724,0.035971839296615724,0.035971839296615724,0.035971839296615724,0.035971839296615724,0.035971839296615724,0.035971839296615724
0.036102504451234696,0.036102504451234696,0.036102504451234696,0.036102504451234696,0.036102504451234696,0.036102504451234696,0.036102504451234696,0.036102504451234696,0.036102504451234696,0.036102504451234696,0.036102504451234696,0.036102504451234696
0.03623265650935233,0.03623265650935233,0.03623265650935233,0.03623265650935233,0.03623265650935233,0.03623265650935233,0.03623265650935233,0.03623265650935233,0.03623265650935233,0.03623265650935233,0.03623265650935233,0.03623265650935233
0.036362293621219795,0.036362293621219795,0.036362293621219795,0.036362293621219795,0.036362293621219795,0.036362293621219795,0.036362293621219795,0.036362293621219795,0.036362293621219795,0.036362293621219795,0.036362293621219795,0.036362293621219795
0.03649141394440677,0.03649141394440677,0.03649141394440677,0.03649141394440677,0.03649141394440677,0.03649141394440677,0.03649141394440677,0.03649141394440677,0.03649141394440677,0.03649141394440677,0.03649141394440677,0.03649141394440677
0.03662001564382766,0.03662001564382766,0.03662001564382766,0.03662001564382766,0.03662001564382766,0.03662001564382766,0.03662001564382766,0.03662001564382766,0.03662001564382766,0.03662001564382766,0.03662001564382766,0.03662001564382766
0.03674809689176764,0.03674809689176764,0.03674809689176764,0.03674809689176764,0.03674809689176764,0.03674809689176764,0.03674809689176764,0.03674809689176764,0.03674809689176764,0.03674809689176764,0.03674809689176764,0.03674809689176764
0.0368756558679087,0.0368756558679087,0.0368756558679087,0.0368756558679087,0.0368756558679087,0.0368756558679087,0.0368756558679087,0.0368756558679087,0.0368756558679087,0.0368756558679087,0.0368756558679087,0.0368756558679087
0.0370026907593554,0.0370026907593554,0.0370026907593554,0.0370026907593554,0.0370026907593554,0.0370026907593554,0.0370026907593554,0.0370026907593554,0.0370026907593554,0.0370026907593554,0.0370026907593554,0.0370026907593554
0.03712919976066077,0.03712919976066077,0.03712919976066077,0.03712919976066077,0.03712919976066077,0.03712919976066077,0.03712919976066077,0.03712919976066077,0.03712919976066077,0.03712919976066077,0.03712919976066077,0.03712919976066077
0.03725518107385186,0.03725518107385186,0.03725518107385186,0.03725518107385186,0.03725518107385186,0.03725518107385186,0.03725518107385186,0.03725518107385186,0.03725518107385186,0.03725518107385186,0.03725518107385186,0.03725518107385186
0.03738063290845535,0.03738063290845535,0.03738063290845535,0.03738063290845535,0.03738063290845535,0.03738063290845535,0.03738063290845535,0.03738063290845535,0.03738063290845535,0.03738063290845535,0.03738063290845535,0.03738063290845535
0.03750555348152298,0.03750555348152298,0.03750555348152298,0.03750555348152298,0.03750555348152298,0.03750555348152298,0.03750555348152298,0.03750555348152298,0.03750555348152298,0.03750555348152298,0.03750555348152298,0.03750555348152298
0.0376299410176569,0.0376299410176569,0.0376299410176569,0.0376299410176569,0.0376299410176569,0.0376299410176569,0.0376299410176569,0.0376299410176569,0.0376299410176569,0.0376299410176569,0.0376299410176569,0.0376299410176569
0.03775379374903488,0.03775379374903488,0.03775379374903488,0.03775379374903488,0.03775379374903488,0.03775379374903488,0.03775379374903488,0.03775379374903488,0.03775379374903488,0.03775379374903488,0.03775379374903488,0.03775379374903488
0.03787710991543547,0.03787710991543547,0.03787710991543547,0.03787710991543547,0.03787710991543547,0.03787710991543547,0.03787710991543547,0.03787710991543547,0.03787710991543547,0.03787710991543547,0.03787710991543547,0.03787710991543547
0.037999887764262975,0.037999887764262975,0.037999887764262975,0.037999887764262975,0.037999887764262975,0.037999887764262975,0.037999887764262975,0.037999887764262975,0.037999887764262975,0.037999887764262975,0.037999887764262975,0.037999887764262975
0.0381221255505724,0.0381221255505724,0.0381221255505724,0.0381221255505724,0.0381221255505724,0.0381221255505724,0.0381221255505724,0.0381221255505724,0.0381221255505724,0.0381221255505724,0.0381221255505724,0.0381221255505724
0.03824382153709422,0.03824382153709422,0.03824382153709422,0.03824382153709422,0.03824382153709422,0.03824382153709422,0.03824382153709422,0.03824382153709422,0.03824382153709422,0.03824382153709422,0.03824382153709422,0.03824382153709422
0.038364973994259095,0.038364973994259095,0.038364973994259095,0.038364973994259095,0.038364973994259095,0.038364973994259095,0.038364973994259095,0.038364973994259095,0.038364973994259095,0.038364973994259095,0.038364973994259095,0.038364973994259095
0.03848558120022245,0.03848558120022245,0.03848558120022245,0.03848558120022245,0.03848558120022245,0.03848558120022245,0.03848558120022245,0.03848558120022245,0.03848558120022245,0.03848558120022245,0.03848558120022245,0.03848558120022245
0.038605641440888905,0.038605641440888905,0.038605641440888905,0.038605641440888905,0.038605641440888905,0.038605641440888905,0.038605641440888905,0.038605641440888905,0.038605641440888905,0.038605641440888905,0.038605641440888905,0.038605641440888905
0.038725153009936696,0.038725153009936696,0.038725153009936696,0.038725153009936696,0.038725153009936696,0.038725153009936696,0.038725153009936696,0.038725153009936696,0.038725153009936696,0.038725153009936696,0.038725153009936696,0.038725153009936696
0.03884411420884187,0.03884411420884187,0.03884411420884187,0.03884411420884187,0.03884411420884187,0.03884411420884187,0.03884411420884187,0.03884411420884187,0.03884411420884187,0.03884411420884187,0.03884411420884187,0.03884411420884187
0.038962523346902506,0.038962523346902506,0.038962523346902506,0.038962523346902506,0.038962523346902506,0.038962523346902506,0.038962523346902506,0.038962523346902506,0.038962523346902506,0.038962523346902506,0.038962523346902506,0.038962523346902506
0.03908037874126263,0.03908037874126263,0.03908037874126263,0.03908037874126263,0.03908037874126263,0.03908037874126263,0.03908037874126263,0.03908037874126263,0.03908037874126263,0.03908037874126263,0.03908037874126263,0.03908037874126263
0.039197678716936205,0.039197678716936205,0.039197678716936205,0.039197678716936205,0.039197678716936205,0.039197678716936205,0.039197678716936205,0.039197678716936205,0.039197678716936205,0.039197678716936205,0.039197678716936205,0.039197678716936205
0.03931442160683095,0.03931442160683095,0.03931442160683095,0.03931442160683095,0.03931442160683095,0.03931442160683095,0.03931442160683095,0.03931442160683095,0.03931442160683095,0.03931442160683095,0.03931442160683095,0.03931442160683095
0.03943060575177197,0.03943060575177197,0.03943060575177197,0.03943060575177197,0.03943060575177197,0.03943060575177197,0.03943060575177197,0.03943060575177197,0.03943060575177197,0.03943060575177197,0.03943060575177197,0.03943060575177197
0.039546229500525415,0.039546229500525415,0.039546229500525415,0.039546229500525415,0.039546229500525415,0.039546229500525415,0.039546229500525415,0.039546229500525415,0.039546229500525415,0.039546229500525415,0.039546229500525415,0.039546229500525415
0.03966129120982187,0.03966129120982187,0.03966129120982187,0.03966129120982187,0.03966129120982187,0.03966129120982187,0.03966129120982187,0.03966129120982187,0.03966129120982187,0.03966129120982187,0.03966129120982187,0.03966129120982187
0.03977578924437975,0.03977578924437975,0.03977578924437975,0.03977578924437975,0.03977578924437975,0.03977578924437975,0.03977578924437975,0.03977578924437975,0.03977578924437975,0.03977578924437975,0.03977578924437975,0.03977578924437975
0.039889721976928555,0.039889721976928555,0.039889721976928555,0.039889721976928555,0.039889721976928555,0.039889721976928555,0.039889721976928555,0.039889721976928555,0.039889721976928555,0.039889721976928555,0.039889721976928555,0.039889721976928555
0.040003087788231945,0.040003087788231945,0.040003087788231945,0.040003087788231945,0.040003087788231945,0.040003087788231945,0.040003087788231945,0.040003087788231945,0.040003087788231945,0.040003087788231945,0.040003087788231945,0.040003087788231945
0.04011588506711083,0.04011588506711083,0.04011588506711083,0.04011588506711083,0.04011588506711083,0.04011588506711083,0.04011588506711083,0.04011588506711083,0.04011588506711083,0.04011588506711083,0.04011588506711083,0.04011588506711083
0.04022811221046618,0.04022811221046618,0.04022811221046618,0.04022811221046618,0.04022811221046618,0.04022811221046618,0.04022811221046618,0.04022811221046618,0.04022811221046618,0.04022811221046618,0.04022811221046618,0.04022811221046618
0.04033976762330188,0.04033976762330188,0.04033976762330188,0.04033976762330188,0.04033976762330188,0.04033976762330188,0.04033976762330188,0.04033976762330188,0.04033976762330188,0.04033976762330188,0.04033976762330188,0.04033976762330188
0.04045084971874738,0.04045084971874738,0.04045084971874738,0.04045084971874738,0.04045084971874738,0.04045084971874738,0.04045084971874738,0.04045084971874738,0.04045084971874738,0.04045084971874738,0.04045084971874738,0.04045084971874738
0.04056135691808019,0.04056135691808019,0.04056135691808019,0.04056135691808019,0.04056135691808019,0.04056135691808019,0.04056135691808019,0.04056135691808019,0.04056135691808019,0.04056135691808019,0.04056135691808019,0.04056135691808019
0.04067128765074842,0.04067128765074842,0.04067128765074842,0.04067128765074842,0.04067128765074842,0.04067128765074842,0.04067128765074842,0.04067128765074842,0.04067128765074842,0.04067128765074842,0.04067128765074842,0.04067128765074842
0.04078064035439302,0.04078064035439302,0.04078064035439302,0.04078064035439302,0.04078064035439302,0.04078064035439302,0.04078064035439302,0.04078064035439302,0.04078064035439302,0.04078064035439302,0.04078064035439302,0.04078064035439302
0.040889413474870025,0.040889413474870025,0.040889413474870025,0.040889413474870025,0.040889413474870025,0.040889413474870025,0.040889413474870025,0.040889413474870025,0.040889413474870025,0.040889413474870025,0.040889413474870025,0.040889413474870025
0.040997605466272624,0.040997605466272624,0.040997605466272624,0.040997605466272624,0.040997605466272624,0.040997605466272624,0.040997605466272624,0.040997605466272624,0.040997605466272624,0.040997605466272624,0.040997605466272624,0.040997605466272624
0.04110521479095312,0.04110521479095312,0.04110521479095312,0.04110521479095312,0.04110521479095312,0.04110521479095312,0.04110521479095312,0.04110521479095312,0.04110521479095312,0.04110521479095312,0.04110521479095312,0.04110521479095312
0.041212239919544834,0.041212239919544834,0.041212239919544834,0.041212239919544834,0.041212239919544834,0.041212239919544834,0.041212239919544834,0.041212239919544834,0.041212239919544834,0.041212239919544834,0.041212239919544834,0.041212239919544834
0.04131867933098377,0.04131867933098377,0.04131867933098377,0.04131867933098377,0.04131867933098377,0.04131867933098377,0.04131867933098377,0.04131867933098377,0.04131867933098377,0.04131867933098377,0.04131867933098377,0.04131867933098377
0.04142453151253031,0.04142453151253031,0.04142453151253031,0.04142453151253031,0.04142453151253031,0.04142453151253031,0.04142453151253031,0.04142453151253031,0.04142453151253031,0.04142453151253031,0.04142453151253031,0.04142453151253031
0.04152979495979063,0.04152979495979063,0.04152979495979063,0.04152979495979063,0.04152979495979063,0.04152979495979063,0.04152979495979063,0.04152979495979063,0.04152979495979063,0.04152979495979063,0.04152979495979063,0.04152979495979063
0.04163446817673816,0.04163446817673816,0.04163446817673816,0.04163446817673816,0.04163446817673816,0.04163446817673816,0.04163446817673816,0.04163446817673816,0.04163446817673816,0.04163446817673816,0.04163446817673816,0.04163446817673816
0.04173854967573478,0.04173854967573478,0.04173854967573478,0.04173854967573478,0.04173854967573478,0.04173854967573478,0.04173854967573478,0.04173854967573478,0.04173854967573478,0.04173854967573478,0.04173854967573478,0.04173854967573478
0.041842037977552,0.041842037977552,0.041842037977552,0.041842037977552,0.041842037977552,0.041842037977552,0.041842037977552,0.041842037977552,0.041842037977552,0.041842037977552,0.041842037977552,0.041842037977552
0.04194493161139199,0.04194493161139199,0.04194493161139199,0.04194493161139199,0.04194493161139199,0.04194493161139199,0.04194493161139199,0.04194493161139199,0.04194493161139199,0.04194493161139199,0.04194493161139199,0.04194493161139199
0.042047229114908456,0.042047229114908456,0.042047229114908456,0.042047229114908456,0.042047229114908456,0.042047229114908456,0.042047229114908456,0.042047229114908456,0.042047229114908456,0.042047229114908456,0.042047229114908456,0.042047229114908456
0.042148929034227435,0.042148929034227435,0.042148929034227435,0.042148929034227435,0.042148929034227435,0.042148929034227435,0.042148929034227435,0.042148929034227435,0.042148929034227435,0.042148929034227435,0.042148929034227435,0.042148929034227435
0.042250029923967966,0.042250029923967966,0.042250029923967966,0.042250029923967966,0.042250029923967966,0.042250029923967966,0.042250029923967966,0.042250029923967966,0.042250029923967966,0.042250029923967966,0.042250029923967966,0.042250029923967966
0.042350530347262605,0.042350530347262605,0.042350530347262605,0.042350530347262605,0.042350530347262605,0.042350530347262605,0.042350530347262605,0.042350530347262605,0.042350530347262605,0.042350530347262605,0.042350530347262605,0.042350530347262605
0.042450428875777886,0.042450428875777886,0.042450428875777886,0.042450428875777886,0.042450428875777886,0.042450428875777886,0.042450428875777886,0.042450428875777886,0.042450428875777886,0.042450428875777886,0.042450428875777886,0.042450428875777886
0.04254972408973459,0.04254972408973459,0.04254972408973459,0.04254972408973459,0.04254972408973459,0.04254972408973459,0.04254972408973459,0.04254972408973459,0.04254972408973459,0.04254972408973459,0.04254972408973459,0.04254972408973459
0.04264841457792795,0.04264841457792795,0.04264841457792795,0.04264841457792795,0.04264841457792795,0.04264841457792795,0.04264841457792795,0.04264841457792795,0.04264841457792795,0.04264841457792795,0.04264841457792795,0.04264841457792795
0.042746498937747665,0.042746498937747665,0.042746498937747665,0.042746498937747665,0.042746498937747665,0.042746498937747665,0.042746498937747665,0.042746498937747665,0.042746498937747665,0.042746498937747665,0.042746498937747665,0.042746498937747665
0.04284397577519787,0.04284397577519787,0.04284397577519787,0.04284397577519787,0.04284397577519787,0.04284397577519787,0.04284397577519787,0.04284397577519787,0.04284397577519787,0.04284397577519787,0.04284397577519787,0.04284397577519787
0.042940843704916944,0.042940843704916944,0.042940843704916944,0.042940843704916944,0.042940843704916944,0.042940843704916944,0.042940843704916944,0.042940843704916944,0.042940843704916944,0.042940843704916944,0.042940843704916944,0.042940843704916944
0.043037101350197185,0.043037101350197185,0.043037101350197185,0.043037101350197185,0.043037101350197185,0.043037101350197185,0.043037101350197185,0.043037101350197185,0.043037101350197185,0.043037101350197185,0.043037101350197185,0.043037101350197185
0.04313274734300439,0.04313274734300439,0.04313274734300439,0.04313274734300439,0.04313274734300439,0.04313274734300439,0.04313274734300439,0.04313274734300439,0.04313274734300439,0.04313274734300439,0.04313274734300439,0.04313274734300439
0.04322778032399729,0.04322778032399729,0.04322778032399729,0.04322778032399729,0.04322778032399729,0.04322778032399729,0.04322778032399729,0.04322778032399729,0.04322778032399729,0.04322778032399729,0.04322778032399729,0.04322778032399729
0.04332219894254686,0.04332219894254686,0.04332219894254686,0.04332219894254686,0.04332219894254686,0.04332219894254686,0.04332219894254686,0.04332219894254686,0.04332219894254686,0.04332219894254686,0.04332219894254686,0.04332219894254686
0.04341600185675554,0.04341600185675554,0.04341600185675554,0.04341600185675554,0.04341600185675554,0.04341600185675554,0.04341600185675554,0.04341600185675554,0.04341600185675554,0.04341600185675554,0.04341600185675554,0.04341600185675554
0.043509187733476284,0.043509187733476284,0.043509187733476284,0.043509187733476284,0.043509187733476284,0.043509187733476284,0.043509187733476284,0.043509187733476284,0.043509187733476284,0.043509187733476284,0.043509187733476284,0.043509187733476284
0.04360175524833152,0.04360175524833152,0.04360175524833152,0.04360175524833152,0.04360175524833152,0.04360175524833152,0.04360175524833152,0.04360175524833152,0.04360175524833152,0.04360175524833152,0.04360175524833152,0.04360175524833152
0.043693703085731964,0.043693703085731964,0.043693703085731964,0.043693703085731964,0.043693703085731964,0.043693703085731964,0.043693703085731964,0.043693703085731964,0.043693703085731964,0.043693703085731964,0.043693703085731964,0.043693703085731964
0.04378502993889532,0.04378502993889532,0.04378502993889532,0.04378502993889532,0.04378502993889532,0.04378502993889532,0.04378502993889532,0.04378502993889532,0.04378502993889532,0.04378502993889532,0.04378502993889532,0.04378502993889532
0.043875734509864844,0.043875734509864844,0.043875734509864844,0.043875734509864844,0.043875734509864844,0.043875734509864844,0.043875734509864844,0.043875734509864844,0.043875734509864844,0.043875734509864844,0.043875734509864844,0.043875734509864844
0.043965815509527814,0.043965815509527814,0.043965815509527814,0.043965815509527814,0.043965815509527814,0.043965815509527814,0.043965815509527814,0.043965815509527814,0.043965815509527814,0.043965815509527814,0.043965815509527814,0.043965815509527814
0.04405527165763383,0.04405527165763383,0.04405527165763383,0.04405527165763383,0.04405527165763383,0.04405527165763383,0.04405527165763383,0.04405527165763383,0.04405527165763383,0.04405527165763383,0.04405527165763383,0.04405527165763383
0.04414410168281301,0.04414410168281301,0.04414410168281301,0.04414410168281301,0.04414410168281301,0.04414410168281301,0.04414410168281301,0.04414410168281301,0.04414410168281301,0.04414410168281301,0.04414410168281301,0.04414410168281301
0.044232304322594077,0.044232304322594077,0.044232304322594077,0.044232304322594077,0.044232304322594077,0.044232304322594077,0.044232304322594077,0.044232304322594077,0.044232304322594077,0.044232304322594077,0.044232304322594077,0.044232304322594077
0.04431987832342228,0.04431987832342228,0.04431987832342228,0.04431987832342228,0.04431987832342228,0.04431987832342228,0.04431987832342228,0.04431987832342228,0.04431987832342228,0.04431987832342228,0.04431987832342228,0.04431987832342228
0.04440682244067723,0.04440682244067723,0.04440682244067723,0.04440682244067723,0.04440682244067723,0.04440682244067723,0.04440682244067723,0.04440682244067723,0.04440682244067723,0.04440682244067723,0.04440682244067723,0.04440682244067723
0.04449313543869055,0.04449313543869055,0.04449313543869055,0.04449313543869055,0.04449313543869055,0.04449313543869055,0.04449313543869055,0.04449313543869055,0.04449313543869055,0.04449313543869055,0.04449313543869055,0.04449313543869055
0.0445788160907635,0.0445788160907635,0.0445788160907635,0.0445788160907635,0.0445788160907635,0.0445788160907635,0.0445788160907635,0.0445788160907635,0.0445788160907635,0.0445788160907635,0.0445788160907635,0.0445788160907635
0.04466386317918436,0.04466386317918436,0.04466386317918436,0.04466386317918436,0.04466386317918436,0.04466386317918436,0.04466386317918436,0.04466386317918436,0.04466386317918436,0.04466386317918436,0.04466386317918436,0.04466386317918436
0.04474827549524574,0.04474827549524574,0.04474827549524574,0.04474827549524574,0.04474827549524574,0.04474827549524574,0.04474827549524574,0.04474827549524574,0.04474827549524574,0.04474827549524574,0.04474827549524574,0.04474827549524574
0.04483205183926179,0.04483205183926179,0.04483205183926179,0.04483205183926179,0.04483205183926179,0.04483205183926179,0.04483205183926179,0.04483205183926179,0.04483205183926179,0.04483205183926179,0.04483205183926179,0.04483205183926179
0.04491519102058523,0.04491519102058523,0.04491519102058523,0.04491519102058523,0.04491519102058523,0.04491519102058523,0.04491519102058523,0.04491519102058523,0.04491519102058523,0.04491519102058523,0.04491519102058523,0.04491519102058523
0.04499769185762424,0.04499769185762424,0.04499769185762424,0.04499769185762424,0.04499769185762424,0.04499769185762424,0.04499769185762424,0.04499769185762424,0.04499769185762424,0.04499769185762424,0.04499769185762424,0.04499769185762424
0.04507955317785933,0.04507955317785933,0.04507955317785933,0.04507955317785933,0.04507955317785933,0.04507955317785933,0.04507955317785933,0.04507955317785933,0.04507955317785933,0.04507955317785933,0.04507955317785933,0.04507955317785933
0.045160773817859934,0.045160773817859934,0.045160773817859934,0.045160773817859934,0.045160773817859934,0.045160773817859934,0.045160773817859934,0.045160773817859934,0.045160773817859934,0.045160773817859934,0.045160773817859934,0.045160773817859934
0.04524135262330098,0.04524135262330098,0.04524135262330098,0.04524135262330098,0.04524135262330098,0.04524135262330098,0.04524135262330098,0.04524135262330098,0.04524135262330098,0.04524135262330098,0.04524135262330098,0.04524135262330098
0.045321288448979265,0.045321288448979265,0.045321288448979265,0.045321288448979265,0.045321288448979265,0.045321288448979265,0.045321288448979265,0.045321288448979265,0.045321288448979265,0.045321288448979265,0.045321288448979265,0.045321288448979265
0.045400580158829786,0.045400580158829786,0.045400580158829786,0.045400580158829786,0.045400580158829786,0.045400580158829786,0.045400580158829786,0.045400580158829786,0.045400580158829786,0.045400580158829786,0.045400580158829786,0.045400580158829786
0.045479226625941824,0.045479226625941824,0.045479226625941824,0.045479226625941824,0.045479226625941824,0.045479226625941824,0.045479226625941824,0.045479226625941824,0.045479226625941824,0.045479226625941824,0.045479226625941824,0.045479226625941824
0.045557226732575,0.045557226732575,0.045557226732575,0.045557226732575,0.045557226732575,0.045557226732575,0.045557226732575,0.045557226732575,0.045557226732575,0.045557226732575,0.045557226732575,0.045557226732575
0.04563457937017514,0.04563457937017514,0.04563457937017514,0.04563457937017514,0.04563457937017514,0.04563457937017514,0.04563457937017514,0.04563457937017514,0.04563457937017514,0.04563457937017514,0.04563457937017514,0.04563457937017514
0.04571128343939005,0.04571128343939005,0.04571128343939005,0.04571128343939005,0.04571128343939005,0.04571128343939005,0.04571128343939005,0.04571128343939005,0.04571128343939005,0.04571128343939005,0.04571128343939005,0.04571128343939005
0.045787337850085125,0.045787337850085125,0.045787337850085125,0.045787337850085125,0.045787337850085125,0.045787337850085125,0.045787337850085125,0.045787337850085125,0.045787337850085125,0.045787337850085125,0.045787337850085125,0.045787337850085125
0.04586274152135883,0.04586274152135883,0.04586274152135883,0.04586274152135883,0.04586274152135883,0.04586274152135883,0.04586274152135883,0.04586274152135883,0.04586274152135883,0.04586274152135883,0.04586274152135883,0.04586274152135883
0.04593749338155809,0.04593749338155809,0.04593749338155809,0.04593749338155809,0.04593749338155809,0.04593749338155809,0.04593749338155809,0.04593749338155809,0.04593749338155809,0.04593749338155809,0.04593749338155809,0.04593749338155809
0.04601159236829352,0.04601159236829352,0.04601159236829352,0.04601159236829352,0.04601159236829352,0.04601159236829352,0.04601159236829352,0.04601159236829352,0.04601159236829352,0.04601159236829352,0.04601159236829352,0.04601159236829352
0.04608503742845449,0.04608503742845449,0.04608503742845449,0.04608503742845449,0.04608503742845449,0.04608503742845449,0.04608503742845449,0.04608503742845449,0.04608503742845449,0.04608503742845449,0.04608503742845449,0.04608503742845449
0.046157827518224136,0.046157827518224136,0.046157827518224136,0.046157827518224136,0.046157827518224136,0.046157827518224136,0.046157827518224136,0.046157827518224136,0.046157827518224136,0.046157827518224136,0.046157827518224136,0.046157827518224136
0.046229961603094144,0.046229961603094144,0.046229961603094144,0.046229961603094144,0.046229961603094144,0.046229961603094144,0.046229961603094144,0.046229961603094144,0.046229961603094144,0.046229961603094144,0.046229961603094144,0.046229961603094144
0.04630143865787951,0.04630143865787951,0.04630143865787951,0.04630143865787951,0.04630143865787951,0.04630143865787951,0.04630143865787951,0.04630143865787951,0.04630143865787951,0.04630143865787951,0.04630143865787951,0.04630143865787951
0.04637225766673307,0.04637225766673307,0.04637225766673307,0.04637225766673307,0.04637225766673307,0.04637225766673307,0.04637225766673307,0.04637225766673307,0.04637225766673307,0.04637225766673307,0.04637225766673307,0.04637225766673307
0.04644241762315995,0.04644241762315995,0.04644241762315995,0.04644241762315995,0.04644241762315995,0.04644241762315995,0.04644241762315995,0.04644241762315995,0.04644241762315995,0.04644241762315995,0.04644241762315995,0.04644241762315995
0.04651191753003186,0.04651191753003186,0.04651191753003186,0.04651191753003186,0.04651191753003186,0.04651191753003186,0.04651191753003186,0.04651191753003186,0.04651191753003186,0.04651191753003186,0.04651191753003186,0.04651191753003186
0.0465807563996013,0.0465807563996013,0.0465807563996013,0.0465807563996013,0.0465807563996013,0.0465807563996013,0.0465807563996013,0.0465807563996013,0.0465807563996013,0.0465807563996013,0.0465807563996013,0.0465807563996013
0.046648933253515545,0.046648933253515545,0.046648933253515545,0.046648933253515545,0.046648933253515545,0.046648933253515545,0.046648933253515545,0.046648933253515545,0.046648933253515545,0.046648933253515545,0.046648933253515545,0.046648933253515545
0.0467164471228306,0.0467164471228306,0.0467164471228306,0.0467164471228306,0.0467164471228306,0.0467164471228306,0.0467164471228306,0.0467164471228306,0.0467164471228306,0.0467164471228306,0.0467164471228306,0.0467164471228306
0.04678329704802495,0.04678329704802495,0.04678329704802495,0.04678329704802495,0.04678329704802495,0.04678329704802495,0.04678329704802495,0.04678329704802495,0.04678329704802495,0.04678329704802495,0.04678329704802495,0.04678329704802495
0.046849482079013155,0.046849482079013155,0.046849482079013155,0.046849482079013155,0.046849482079013155,0.046849482079013155,0.046849482079013155,0.046849482079013155,0.046849482079013155,0.046849482079013155,0.046849482079013155,0.046849482079013155
0.04691500127515945,0.04691500127515945,0.04691500127515945,0.04691500127515945,0.04691500127515945,0.04691500127515945,0.04691500127515945,0.04691500127515945,0.04691500127515945,0.04691500127515945,0.04691500127515945,0.04691500127515945
0.046979853705291015,0.046979853705291015,0.046979853705291015,0.046979853705291015,0.046979853705291015,0.046979853705291015,0.046979853705291015,0.046979853705291015,0.046979853705291015,0.046979853705291015,0.046979853705291015,0.046979853705291015
0.047044038447711274,0.047044038447711274,0.047044038447711274,0.047044038447711274,0.047044038447711274,0.047044038447711274,0.047044038447711274,0.047044038447711274,0.047044038447711274,0.047044038447711274,0.047044038447711274,0.047044038447711274
0.04710755459021297,0.04710755459021297,0.04710755459021297,0.04710755459021297,0.04710755459021297,0.04710755459021297,0.04710755459021297,0.04710755459021297,0.04710755459021297,0.04710755459021297,0.04710755459021297,0.04710755459021297
0.047170401230091114,0.047170401230091114,0.047170401230091114,0.047170401230091114,0.047170401230091114,0.047170401230091114,0.047170401230091114,0.047170401230091114,0.047170401230091114,0.047170401230091114,0.047170401230091114,0.047170401230091114
0.047232577474155844,0.047232577474155844,0.047232577474155844,0.047232577474155844,0.047232577474155844,0.047232577474155844,0.047232577474155844,0.047232577474155844,0.047232577474155844,0.047232577474155844,0.047232577474155844,0.047232577474155844
0.04729408243874511,0.04729408243874511,0.04729408243874511,0.04729408243874511,0.04729408243874511,0.04729408243874511,0.04729408243874511,0.04729408243874511,0.04729408243874511,0.04729408243874511,0.04729408243874511,0.04729408243874511
0.04735491524973722,0.04735491524973722,0.04735491524973722,0.04735491524973722,0.04735491524973722,0.04735491524973722,0.04735491524973722,0.04735491524973722,0.04735491524973722,0.04735491524973722,0.04735491524973722,0.04735491524973722
0.04741507504256327,0.04741507504256327,0.04741507504256327,0.04741507504256327,0.04741507504256327,0.04741507504256327,0.04741507504256327,0.04741507504256327,0.04741507504256327,0.04741507504256327,0.04741507504256327,0.04741507504256327
0.04747456096221945,0.04747456096221945,0.04747456096221945,0.04747456096221945,0.04747456096221945,0.04747456096221945,0.04747456096221945,0.04747456096221945,0.04747456096221945,0.04747456096221945,0.04747456096221945,0.04747456096221945
0.047533372163279165,0.047533372163279165,0.047533372163279165,0.047533372163279165,0.047533372163279165,0.047533372163279165,0.047533372163279165,0.047533372163279165,0.047533372163279165,0.047533372163279165,0.047533372163279165,0.047533372163279165
0.04759150780990507,0.04759150780990507,0.04759150780990507,0.04759150780990507,0.04759150780990507,0.04759150780990507,0.04759150780990507,0.04759150780990507,0.04759150780990507,0.04759150780990507,0.04759150780990507,0.04759150780990507
0.04764896707586094,0.04764896707586094,0.04764896707586094,0.04764896707586094,0.04764896707586094,0.04764896707586094,0.04764896707586094,0.04764896707586094,0.04764896707586094,0.04764896707586094,0.04764896707586094,0.04764896707586094
0.04770574914452343,0.04770574914452343,0.04770574914452343,0.04770574914452343,0.04770574914452343,0.04770574914452343,0.04770574914452343,0.04770574914452343,0.04770574914452343,0.04770574914452343,0.04770574914452343,0.04770574914452343
0.047761853208893645,0.047761853208893645,0.047761853208893645,0.047761853208893645,0.047761853208893645,0.047761853208893645,0.047761853208893645,0.047761853208893645,0.047761853208893645,0.047761853208893645,0.047761853208893645,0.047761853208893645
0.04781727847160864,0.04781727847160864,0.04781727847160864,0.04781727847160864,0.04781727847160864,0.04781727847160864,0.04781727847160864,0.04781727847160864,0.04781727847160864,0.04781727847160864,0.04781727847160864,0.04781727847160864
0.04787202414495276,0.04787202414495276,0.04787202414495276,0.04787202414495276,0.04787202414495276,0.04787202414495276,0.04787202414495276,0.04787202414495276,0.04787202414495276,0.04787202414495276,0.04787202414495276,0.04787202414495276
0.04792608945086879,0.04792608945086879,0.04792608945086879,0.04792608945086879,0.04792608945086879,0.04792608945086879,0.04792608945086879,0.04792608945086879,0.04792608945086879,0.04792608945086879,0.04792608945086879,0.04792608945086879
0.04797947362096909,0.04797947362096909,0.04797947362096909,0.04797947362096909,0.04797947362096909,0.04797947362096909,0.04797947362096909,0.04797947362096909,0.04797947362096909,0.04797947362096909,0.04797947362096909,0.04797947362096909
0.0480321758965464,0.0480321758965464,0.0480321758965464,0.0480321758965464,0.0480321758965464,0.0480321758965464,0.0480321758965464,0.0480321758965464,0.0480321758965464,0.0480321758965464,0.0480321758965464,0.0480321758965464
0.048084195528584756,0.048084195528584756,0.048084195528584756,0.048084195528584756,0.048084195528584756,0.048084195528584756,0.048084195528584756,0.048084195528584756,0.048084195528584756,0.048084195528584756,0.048084195528584756,0.048084195528584756
0.04813553177777003,0.04813553177777003,0.04813553177777003,0.04813553177777003,0.04813553177777003,0.04813553177777003,0.04813553177777003,0.04813553177777003,0.04813553177777003,0.04813553177777003,0.04813553177777003,0.04813553177777003
0.04818618391450049,0.04818618391450049,0.04818618391450049,0.04818618391450049,0.04818618391450049,0.04818618391450049,0.04818618391450049,0.04818618391450049,0.04818618391450049,0.04818618391450049,0.04818618391450049,0.04818618391450049
0.04823615121889714,0.04823615121889714,0.04823615121889714,0.04823615121889714,0.04823615121889714,0.04823615121889714,0.04823615121889714,0.04823615121889714,0.04823615121889714,0.04823615121889714,0.04823615121889714,0.04823615121889714
0.048285432980814,0.048285432980814,0.048285432980814,0.048285432980814,0.048285432980814,0.048285432980814,0.048285432980814,0.048285432980814,0.048285432980814,0.048285432980814,0.048285432980814,0.048285432980814
0.04833402849984815,0.04833402849984815,0.04833402849984815,0.04833402849984815,0.04833402849984815,0.04833402849984815,0.04833402849984815,0.04833402849984815,0.04833402849984815,0.04833402849984815,0.04833402849984815,0.04833402849984815
0.048381937085349686,0.048381937085349686,0.048381937085349686,0.048381937085349686,0.048381937085349686,0.048381937085349686,0.048381937085349686,0.048381937085349686,0.048381937085349686,0.048381937085349686,0.048381937085349686,0.048381937085349686
0.048429158056431554,0.048429158056431554,0.048429158056431554,0.048429158056431554,0.048429158056431554,0.048429158056431554,0.048429158056431554,0.048429158056431554,0.048429158056431554,0.048429158056431554,0.048429158056431554,0.048429158056431554
0.04847569074197925,0.04847569074197925,0.04847569074197925,0.04847569074197925,0.04847569074197925,0.04847569074197925,0.04847569074197925,0.04847569074197925,0.04847569074197925,0.04847569074197925,0.04847569074197925,0.04847569074197925
0.04852153448066031,0.04852153448066031,0.04852153448066031,0.04852153448066031,0.04852153448066031,0.04852153448066031,0.04852153448066031,0.04852153448066031,0.04852153448066031,0.04852153448066031,0.04852153448066031,0.04852153448066031
0.04856668862093372,0.04856668862093372,0.04856668862093372,0.04856668862093372,0.04856668862093372,0.04856668862093372,0.04856668862093372,0.04856668862093372,0.04856668862093372,0.04856668862093372,0.04856668862093372,0.04856668862093372
0.048611152521059214,0.048611152521059214,0.048611152521059214,0.048611152521059214,0.048611152521059214,0.048611152521059214,0.048611152521059214,0.048611152521059214,0.048611152521059214,0.048611152521059214,0.048611152521059214,0.048611152521059214
0.04865492554910633,0.04865492554910633,0.04865492554910633,0.04865492554910633,0.04865492554910633,0.04865492554910633,0.04865492554910633,0.04865492554910633,0.04865492554910633,0.04865492554910633,0.04865492554910633,0.04865492554910633
0.04869800708296346,0.04869800708296346,0.04869800708296346,0.04869800708296346,0.04869800708296346,0.04869800708296346,0.04869800708296346,0.04869800708296346,0.04869800708296346,0.04869800708296346,0.04869800708296346,0.04869800708296346
0.048740396510346645,0.048740396510346645,0.048740396510346645,0.048740396510346645,0.048740396510346645,0.048740396510346645,0.048740396510346645,0.048740396510346645,0.048740396510346645,0.048740396510346645,0.048740396510346645,0.048740396510346645
0.0487820932288083,0.0487820932288083,0.0487820932288083,0.0487820932288083,0.0487820932288083,0.0487820932288083,0.0487820932288083,0.0487820932288083,0.0487820932288083,0.0487820932288083,0.0487820932288083,0.0487820932288083
0.048823096645745745,0.048823096645745745,0.048823096645745745,0.048823096645745745,0.048823096645745745,0.048823096645745745,0.048823096645745745,0.048823096645745745,0.048823096645745745,0.048823096645745745,0.048823096645745745,0.048823096645745745
0.048863406178409674,0.048863406178409674,0.048863406178409674,0.048863406178409674,0.048863406178409674,0.048863406178409674,0.048863406178409674,0.048863406178409674,0.048863406178409674,0.048863406178409674,0.048863406178409674,0.048863406178409674
0.0489030212539124,0.0489030212539124,0.0489030212539124,0.0489030212539124,0.0489030212539124,0.0489030212539124,0.0489030212539124,0.0489030212539124,0.0489030212539124,0.0489030212539124,0.0489030212539124,0.0489030212539124
0.048941941309236014,0.048941941309236014,0.048941941309236014,0.048941941309236014,0.048941941309236014,0.048941941309236014,0.048941941309236014,0.048941941309236014,0.048941941309236014,0.048941941309236014,0.048941941309236014,0.048941941309236014
0.04898016579124037,0.04898016579124037,0.04898016579124037,0.04898016579124037,0.04898016579124037,0.04898016579124037,0.04898016579124037,0.04898016579124037,0.04898016579124037,0.04898016579124037,0.04898016579124037,0.04898016579124037
0.04901769415667098,0.04901769415667098,0.04901769415667098,0.04901769415667098,0.04901769415667098,0.04901769415667098,0.04901769415667098,0.04901769415667098,0.04901769415667098,0.04901769415667098,0.04901769415667098,0.04901769415667098
0.04905452587216671,0.04905452587216671,0.04905452587216671,0.04905452587216671,0.04905452587216671,0.04905452587216671,0.04905452587216671,0.04905452587216671,0.04905452587216671,0.04905452587216671,0.04905452587216671,0.04905452587216671
0.04909066041426733,0.04909066041426733,0.04909066041426733,0.04909066041426733,0.04909066041426733,0.04909066041426733,0.04909066041426733,0.04909066041426733,0.04909066041426733,0.04909066041426733,0.04909066041426733,0.04909066041426733
0.049126097269421035,0.049126097269421035,0.049126097269421035,0.049126097269421035,0.049126097269421035,0.049126097269421035,0.049126097269421035,0.049126097269421035,0.049126097269421035,0.049126097269421035,0.049126097269421035,0.049126097269421035
0.04916083593399166,0.04916083593399166,0.04916083593399166,0.04916083593399166,0.04916083593399166,0.04916083593399166,0.04916083593399166,0.04916083593399166,0.04916083593399166,0.04916083593399166,0.04916083593399166,0.04916083593399166
0.04919487591426589,0.04919487591426589,0.04919487591426589,0.04919487591426589,0.04919487591426589,0.04919487591426589,0.04919487591426589,0.04919487591426589,0.04919487591426589,0.04919487591426589,0.04919487591426589,0.04919487591426589
0.04922821672646027,0.04922821672646027,0.04922821672646027,0.04922821672646027,0.04922821672646027,0.04922821672646027,0.04922821672646027,0.04922821672646027,0.04922821672646027,0.04922821672646027,0.04922821672646027,0.04922821672646027
0.049260857896728044,0.049260857896728044,0.049260857896728044,0.049260857896728044,0.049260857896728044,0.049260857896728044,0.049260857896728044,0.049260857896728044,0.049260857896728044,0.049260857896728044,0.049260857896728044,0.049260857896728044
0.04929279896116594,0.04929279896116594,0.04929279896116594,0.04929279896116594,0.04929279896116594,0.04929279896116594,0.04929279896116594,0.04929279896116594,0.04929279896116594,0.04929279896116594,0.04929279896116594,0.04929279896116594
0.04932403946582072,0.04932403946582072,0.04932403946582072,0.04932403946582072,0.04932403946582072,0.04932403946582072,0.04932403946582072,0.04932403946582072,0.04932403946582072,0.04932403946582072,0.04932403946582072,0.04932403946582072
0.04935457896669568,0.04935457896669568,0.04935457896669568,0.04935457896669568,0.04935457896669568,0.04935457896669568,0.04935457896669568,0.04935457896669568,0.04935457896669568,0.04935457896669568,0.04935457896669568,0.04935457896669568
0.04938441702975689,0.04938441702975689,0.04938441702975689,0.04938441702975689,0.04938441702975689,0.04938441702975689,0.04938441702975689,0.04938441702975689,0.04938441702975689,0.04938441702975689,0.04938441702975689,0.04938441702975689
0.04941355323093944,0.04941355323093944,0.04941355323093944,0.04941355323093944,0.04941355323093944,0.04941355323093944,0.04941355323093944,0.04941355323093944,0.04941355323093944,0.04941355323093944,0.04941355323093944,0.04941355323093944
0.04944198715615342,0.04944198715615342,0.04944198715615342,0.04944198715615342,0.04944198715615342,0.04944198715615342,0.04944198715615342,0.04944198715615342,0.04944198715615342,0.04944198715615342,0.04944198715615342,0.04944198715615342
0.04946971840128981,0.04946971840128981,0.04946971840128981,0.04946971840128981,0.04946971840128981,0.04946971840128981,0.04946971840128981,0.04946971840128981,0.04946971840128981,0.04946971840128981,0.04946971840128981,0.04946971840128981
0.04949674657222624,0.04949674657222624,0.04949674657222624,0.04949674657222624,0.04949674657222624,0.04949674657222624,0.04949674657222624,0.04949674657222624,0.04949674657222624,0.04949674657222624,0.04949674657222624,0.04949674657222624
0.04952307128483256,0.04952307128483256,0.04952307128483256,0.04952307128483256,0.04952307128483256,0.04952307128483256,0.04952307128483256,0.04952307128483256,0.04952307128483256,0.04952307128483256,0.04952307128483256,0.04952307128483256
0.04954869216497635,0.04954869216497635,0.04954869216497635,0.04954869216497635,0.04954869216497635,0.04954869216497635,0.04954869216497635,0.04954869216497635,0.04954869216497635,0.04954869216497635,0.04954869216497635,0.04954869216497635
0.04957360884852818,0.04957360884852818,0.04957360884852818,0.04957360884852818,0.04957360884852818,0.04957360884852818,0.04957360884852818,0.04957360884852818,0.04957360884852818,0.04957360884852818,0.04957360884852818,0.04957360884852818
0.04959782098136683,0.04959782098136683,0.04959782098136683,0.04959782098136683,0.04959782098136683,0.04959782098136683,0.04959782098136683,0.04959782098136683,0.04959782098136683,0.04959782098136683,0.04959782098136683,0.04959782098136683
0.04962132821938429,0.04962132821938429,0.04962132821938429,0.04962132821938429,0.04962132821938429,0.04962132821938429,0.04962132821938429,0.04962132821938429,0.04962132821938429,0.04962132821938429,0.04962132821938429,0.04962132821938429
0.049644130228490686,0.049644130228490686,0.049644130228490686,0.049644130228490686,0.049644130228490686,0.049644130228490686,0.049644130228490686,0.049644130228490686,0.049644130228490686,0.049644130228490686,0.049644130228490686,0.049644130228490686
0.04966622668461899,0.04966622668461899,0.04966622668461899,0.04966622668461899,0.04966622668461899,0.04966622668461899,0.04966622668461899,0.04966622668461899,0.04966622668461899,0.04966622668461899,0.04966622668461899,0.04966622668461899
0.049687617273729646,0.049687617273729646,0.049687617273729646,0.049687617273729646,0.049687617273729646,0.049687617273729646,0.049687617273729646,0.049687617273729646,0.049687617273729646,0.049687617273729646,0.049687617273729646,0.049687617273729646
0.04970830169181504,0.04970830169181504,0.04970830169181504,0.04970830169181504,0.04970830169181504,0.04970830169181504,0.04970830169181504,0.04970830169181504,0.04970830169181504,0.04970830169181504,0.04970830169181504,0.04970830169181504
0.04972827964490381,0.04972827964490381,0.04972827964490381,0.04972827964490381,0.04972827964490381,0.04972827964490381,0.04972827964490381,0.04972827964490381,0.04972827964490381,0.04972827964490381,0.04972827964490381,0.04972827964490381
0.049747550849065014,0.049747550849065014,0.049747550849065014,0.049747550849065014,0.049747550849065014,0.049747550849065014,0.049747550849065014,0.049747550849065014,0.049747550849065014,0.049747550849065014,0.049747550849065014,0.049747550849065014
0.04976611503041218,0.04976611503041218,0.04976611503041218,0.04976611503041218,0.04976611503041218,0.04976611503041218,0.04976611503041218,0.04976611503041218,0.04976611503041218,0.04976611503041218,0.04976611503041218,0.04976611503041218
0.04978397192510721,0.04978397192510721,0.04978397192510721,0.04978397192510721,0.04978397192510721,0.04978397192510721,0.04978397192510721,0.04978397192510721,0.04978397192510721,0.04978397192510721,0.04978397192510721,0.04978397192510721
0.0498011212793641,0.0498011212793641,0.0498011212793641,0.0498011212793641,0.0498011212793641,0.0498011212793641,0.0498011212793641,0.0498011212793641,0.0498011212793641,0.0498011212793641,0.0498011212793641,0.0498011212793641
0.04981756284945257,0.04981756284945257,0.04981756284945257,0.04981756284945257,0.04981756284945257,0.04981756284945257,0.04981756284945257,0.04981756284945257,0.04981756284945257,0.04981756284945257,0.04981756284945257,0.04981756284945257
0.0498332964017015,0.0498332964017015,0.0498332964017015,0.0498332964017015,0.0498332964017015,0.0498332964017015,0.0498332964017015,0.0498332964017015,0.0498332964017015,0.0498332964017015,0.0498332964017015,0.0498332964017015
0.0498483217125023,0.0498483217125023,0.0498483217125023,0.0498483217125023,0.0498483217125023,0.0498483217125023,0.0498483217125023,0.0498483217125023,0.0498483217125023,0.0498483217125023,0.0498483217125023,0.0498483217125023
0.049862638568312044,0.049862638568312044,0.049862638568312044,0.049862638568312044,0.049862638568312044,0.049862638568312044,0.049862638568312044,0.049862638568312044,0.049862638568312044,0.049862638568312044,0.049862638568312044,0.049862638568312044
0.049876246765656516,0.049876246765656516,0.049876246765656516,0.049876246765656516,0.049876246765656516,0.049876246765656516,0.049876246765656516,0.049876246765656516,0.049876246765656516,0.049876246765656516,0.049876246765656516,0.049876246765656516
0.04988914611113311,0.04988914611113311,0.04988914611113311,0.04988914611113311,0.04988914611113311,0.04988914611113311,0.04988914611113311,0.04988914611113311,0.04988914611113311,0.04988914611113311,0.04988914611113311,0.04988914611113311
0.04990133642141358,0.04990133642141358,0.04990133642141358,0.04990133642141358,0.04990133642141358,0.04990133642141358,0.04990133642141358,0.04990133642141358,0.04990133642141358,0.04990133642141358,0.04990133642141358,0.04990133642141358
0.04991281752324663,0.04991281752324663,0.04991281752324663,0.04991281752324663,0.04991281752324663,0.04991281752324663,0.04991281752324663,0.04991281752324663,0.04991281752324663,0.04991281752324663,0.04991281752324663,0.04991281752324663
0.04992358925346039,0.04992358925346039,0.04992358925346039,0.04992358925346039,0.04992358925346039,0.04992358925346039,0.04992358925346039,0.04992358925346039,0.04992358925346039,0.04992358925346039,0.04992358925346039,0.04992358925346039
0.04993365145896472,0.04993365145896472,0.04993365145896472,0.04993365145896472,0.04993365145896472,0.04993365145896472,0.04993365145896472,0.04993365145896472,0.04993365145896472,0.04993365145896472,0.04993365145896472,0.04993365145896472
0.04994300399675343,0.04994300399675343,0.04994300399675343,0.04994300399675343,0.04994300399675343,0.04994300399675343,0.04994300399675343,0.04994300399675343,0.04994300399675343,0.04994300399675343,0.04994300399675343,0.04994300399675343
0.04995164673390624,0.04995164673390624,0.04995164673390624,0.04995164673390624,0.04995164673390624,0.04995164673390624,0.04995164673390624,0.04995164673390624,0.04995164673390624,0.04995164673390624,0.04995164673390624,0.04995164673390624
0.04995957954759073,0.04995957954759073,0.04995957954759073,0.04995957954759073,0.04995957954759073,0.04995957954759073,0.04995957954759073,0.04995957954759073,0.04995957954759073,0.04995957954759073,0.04995957954759073,0.04995957954759073
0.04996680232506404,0.04996680232506404,0.04996680232506404,0.04996680232506404,0.04996680232506404,0.04996680232506404,0.04996680232506404,0.04996680232506404,0.04996680232506404,0.04996680232506404,0.04996680232506404,0.04996680232506404
0.04997331496367455,0.04997331496367455,0.04997331496367455,0.04997331496367455,0.04997331496367455,0.04997331496367455,0.04997331496367455,0.04997331496367455,0.04997331496367455,0.04997331496367455,0.04997331496367455,0.04997331496367455
0.04997911737086321,0.04997911737086321,0.04997911737086321,0.04997911737086321,0.04997911737086321,0.04997911737086321,0.04997911737086321,0.04997911737086321,0.04997911737086321,0.04997911737086321,0.04997911737086321,0.04997911737086321
0.049984209464165,0.049984209464165,0.049984209464165,0.049984209464165,0.049984209464165,0.049984209464165,0.049984209464165,0.049984209464165,0.049984209464165,0.049984209464165,0.049984209464165,0.049984209464165
0.04998859117120999,0.04998859117120999,0.04998859117120999,0.04998859117120999,0.04998859117120999,0.04998859117120999,0.04998859117120999,0.04998859117120999,0.04998859117120999,0.04998859117120999,0.04998859117120999,0.04998859117120999
0.04999226242972443,0.04999226242972443,0.04999226242972443,0.04999226242972443,0.04999226242972443,0.04999226242972443,0.04999226242972443,0.04999226242972443,0.04999226242972443,0.04999226242972443,0.04999226242972443,0.04999226242972443
0.04999522318753161,0.04999522318753161,0.04999522318753161,0.04999522318753161,0.04999522318753161,0.04999522318753161,0.04999522318753161,0.04999522318753161,0.04999522318753161,0.04999522318753161,0.04999522318753161,0.04999522318753161
0.04999747340255259,0.04999747340255259,0.04999747340255259,0.04999747340255259,0.04999747340255259,0.04999747340255259,0.04999747340255259,0.04999747340255259,0.04999747340255259,0.04999747340255259,0.04999747340255259,0.04999747340255259
0.04999901304280686,0.04999901304280686,0.04999901304280686,0.04999901304280686,0.04999901304280686,0.04999901304280686,0.04999901304280686,0.04999901304280686,0.04999901304280686,0.04999901304280686,0.04999901304280686,0.04999901304280686
0.049999842086412706,0.049999842086412706,0.049999842086412706,0.049999842086412706,0.049999842086412706,0.049999842086412706,0.049999842086412706,0.049999842086412706,0.049999842086412706,0.049999842086412706,0.049999842086412706,0.049999842086412706
0.04999996052158759,0.04999996052158759,0.04999996052158759,0.04999996052158759,0.04999996052158759,0.04999996052158759,0.04999996052158759,0.04999996052158759,0.04999996052158759,0.04999996052158759,0.04999996052158759,0.04999996052158759
0.04999936834664829,0.04999936834664829,0.04999936834664829,0.04999936834664829,0.04999936834664829,0.04999936834664829,0.04999936834664829,0.04999936834664829,0.04999936834664829,0.04999936834664829,0.04999936834664829,0.04999936834664829
0.049998065570010915,0.049998065570010915,0.049998065570010915,0.049998065570010915,0.049998065570010915,0.049998065570010915,0.049998065570010915,0.049998065570010915,0.049998065570010915,0.049998065570010915,0.049998065570010915,0.049998065570010915
0.04999605221019081,0.04999605221019081,0.04999605221019081,0.04999605221019081,0.04999605221019081,0.04999605221019081,0.04999605221019081,0.04999605221019081,0.04999605221019081,0.04999605221019081,0.04999605221019081,0.04999605221019081
0.04999332829580227,0.04999332829580227,0.04999332829580227,0.04999332829580227,0.04999332829580227,0.04999332829580227,0.04999332829580227,0.04999332829580227,0.04999332829580227,0.04999332829580227,0.04999332829580227,0.04999332829580227
0.04998989386555815,0.04998989386555815,0.04998989386555815,0.04998989386555815,0.04998989386555815,0.04998989386555815,0.04998989386555815,0.04998989386555815,0.04998989386555815,0.04998989386555815,0.04998989386555815,0.04998989386555815
0.04998574896826931,0.04998574896826931,0.04998574896826931,0.04998574896826931,0.04998574896826931,0.04998574896826931,0.04998574896826931,0.04998574896826931,0.04998574896826931,0.04998574896826931,0.04998574896826931,0.04998574896826931
0.0499808936628439,0.0499808936628439,0.0499808936628439,0.0499808936628439,0.0499808936628439,0.0499808936628439,0.0499808936628439,0.0499808936628439,0.0499808936628439,0.0499808936628439,0.0499808936628439,0.0499808936628439
0.04997532801828658,0.04997532801828658,0.04997532801828658,0.04997532801828658,0.04997532801828658,0.04997532801828658,0.04997532801828658,0.04997532801828658,0.04997532801828658,0.04997532801828658,0.04997532801828658,0.04997532801828658
0.04996905211369746,0.04996905211369746,0.04996905211369746,0.04996905211369746,0.04996905211369746,0.04996905211369746,0.04996905211369746,0.04996905211369746,0.04996905211369746,0.04996905211369746,0.04996905211369746,0.04996905211369746
0.04996206603827105,0.04996206603827105,0.04996206603827105,0.04996206603827105,0.04996206603827105,0.04996206603827105,0.04996206603827105,0.04996206603827105,0.04996206603827105,0.04996206603827105,0.04996206603827105,0.04996206603827105
0.04995436989129494,0.04995436989129494,0.04995436989129494,0.04995436989129494,0.04995436989129494,0.04995436989129494,0.04995436989129494,0.04995436989129494,0.04995436989129494,0.04995436989129494,0.04995436989129494,0.04995436989129494
0.04994596378214841,0.04994596378214841,0.04994596378214841,0.04994596378214841,0.04994596378214841,0.04994596378214841,0.04994596378214841,0.04994596378214841,0.04994596378214841,0.04994596378214841,0.04994596378214841,0.04994596378214841
0.049936847830300876,0.049936847830300876,0.049936847830300876,0.049936847830300876,0.049936847830300876,0.049936847830300876,0.049936847830300876,0.049936847830300876,0.049936847830300876,0.049936847830300876,0.049936847830300876,0.049936847830300876
0.0499270221653102,0.0499270221653102,0.0499270221653102,0.0499270221653102,0.0499270221653102,0.0499270221653102,0.0499270221653102,0.0499270221653102,0.0499270221653102,0.0499270221653102,0.0499270221653102,0.0499270221653102
0.04991648692682083,0.04991648692682083,0.04991648692682083,0.04991648692682083,0.04991648692682083,0.04991648692682083,0.04991648692682083,0.04991648692682083,0.04991648692682083,0.04991648692682083,0.04991648692682083,0.04991648692682083
0.04990524226456182,0.04990524226456182,0.04990524226456182,0.04990524226456182,0.04990524226456182,0.04990524226456182,0.04990524226456182,0.04990524226456182,0.04990524226456182,0.04990524226456182,0.04990524226456182,0.04990524226456182
0.049893288338344714,0.049893288338344714,0.049893288338344714,0.049893288338344714,0.049893288338344714,0.049893288338344714,0.049893288338344714,0.049893288338344714,0.049893288338344714,0.049893288338344714,0.049893288338344714,0.049893288338344714
0.04988062531806126,0.04988062531806126,0.04988062531806126,0.04988062531806126,0.04988062531806126,0.04988062531806126,0.04988062531806126,0.04988062531806126,0.04988062531806126,0.04988062531806126,0.04988062531806126,0.04988062531806126
0.04986725338368101,0.04986725338368101,0.04986725338368101,0.04986725338368101,0.04986725338368101,0.04986725338368101,0.04986725338368101,0.04986725338368101,0.04986725338368101,0.04986725338368101,0.04986725338368101,0.04986725338368101
0.04985317272524875,0.04985317272524875,0.04985317272524875,0.04985317272524875,0.04985317272524875,0.04985317272524875,0.04985317272524875,0.04985317272524875,0.04985317272524875,0.04985317272524875,0.04985317272524875,0.04985317272524875
0.04983838354288181,0.04983838354288181,0.04983838354288181,0.04983838354288181,0.04983838354288181,0.04983838354288181,0.04983838354288181,0.04983838354288181,0.04983838354288181,0.04983838354288181,0.04983838354288181,0.04983838354288181
0.04982288604676719,0.04982288604676719,0.04982288604676719,0.04982288604676719,0.04982288604676719,0.04982288604676719,0.04982288604676719,0.04982288604676719,0.04982288604676719,0.04982288604676719,0.04982288604676719,0.04982288604676719
0.04980668045715863,0.04980668045715863,0.04980668045715863,0.04980668045715863,0.04980668045715863,0.04980668045715863,0.04980668045715863,0.04980668045715863,0.04980668045715863,0.04980668045715863,0.04980668045715863,0.04980668045715863
0.04978976700437342,0.04978976700437342,0.04978976700437342,0.04978976700437342,0.04978976700437342,0.04978976700437342,0.04978976700437342,0.04978976700437342,0.04978976700437342,0.04978976700437342,0.04978976700437342,0.04978976700437342
0.04977214592878916,0.04977214592878916,0.04977214592878916,0.04977214592878916,0.04977214592878916,0.04977214592878916,0.04977214592878916,0.04977214592878916,0.04977214592878916,0.04977214592878916,0.04977214592878916,0.04977214592878916
0.04975381748084035,0.04975381748084035,0.04975381748084035,0.04975381748084035,0.04975381748084035,0.04975381748084035,0.04975381748084035,0.04975381748084035,0.04975381748084035,0.04975381748084035,0.04975381748084035,0.04975381748084035
0.0497347819210148,0.0497347819210148,0.0497347819210148,0.0497347819210148,0.0497347819210148,0.0497347819210148,0.0497347819210148,0.0497347819210148,0.0497347819210148,0.0497347819210148,0.0497347819210148,0.0497347819210148
0.04971503951984995,0.04971503951984995,0.04971503951984995,0.04971503951984995,0.04971503951984995,0.04971503951984995,0.04971503951984995,0.04971503951984995,0.04971503951984995,0.04971503951984995,0.04971503951984995,0.04971503951984995
0.04969459055792902,0.04969459055792902,0.04969459055792902,0.04969459055792902,0.04969459055792902,0.04969459055792902,0.04969459055792902,0.04969459055792902,0.04969459055792902,0.04969459055792902,0.04969459055792902,0.04969459055792902
0.049673435325877015,0.049673435325877015,0.049673435325877015,0.049673435325877015,0.049673435325877015,0.049673435325877015,0.049673435325877015,0.049673435325877015,0.049673435325877015,0.049673435325877015,0.049673435325877015,0.049673435325877015
0.049651574124356626,0.049651574124356626,0.049651574124356626,0.049651574124356626,0.049651574124356626,0.049651574124356626,0.049651574124356626,0.049651574124356626,0.049651574124356626,0.049651574124356626,0.049651574124356626,0.049651574124356626
0.049629007264063905,0.049629007264063905,0.049629007264063905,0.049629007264063905,0.049629007264063905,0.049629007264063905,0.049629007264063905,0.049629007264063905,0.049629007264063905,0.049629007264063905,0.049629007264063905,0.049629007264063905
0.0496057350657239,0.0496057350657239,0.0496057350657239,0.0496057350657239,0.0496057350657239,0.0496057350657239,0.0496057350657239,0.0496057350657239,0.0496057350657239,0.0496057350657239,0.0496057350657239,0.0496057350657239
0.04958175786008604,0.04958175786008604,0.04958175786008604,0.04958175786008604,0.04958175786008604,0.04958175786008604,0.04958175786008604,0.04958175786008604,0.04958175786008604,0.04958175786008604,0.04958175786008604,0.04958175786008604
0.049557075987919516,0.049557075987919516,0.049557075987919516,0.049557075987919516,0.049557075987919516,0.049557075987919516,0.049557075987919516,0.049557075987919516,0.049557075987919516,0.049557075987919516,0.049557075987919516,0.049557075987919516
0.04953168980000835,0.04953168980000835,0.04953168980000835,0.04953168980000835,0.04953168980000835,0.04953168980000835,0.04953168980000835,0.04953168980000835,0.04953168980000835,0.04953168980000835,0.04953168980000835,0.04953168980000835
0.04950559965714647,0.04950559965714647,0.04950559965714647,0.04950559965714647,0.04950559965714647,0.04950559965714647,0.04950559965714647,0.04950559965714647,0.04950559965714647,0.04950559965714647,0.04950559965714647,0.04950559965714647
0.04947880593013255,0.04947880593013255,0.04947880593013255,0.04947880593013255,0.04947880593013255,0.04947880593013255,0.04947880593013255,0.04947880593013255,0.04947880593013255,0.04947880593013255,0.04947880593013255,0.04947880593013255
0.04945130899976477,0.04945130899976477,0.04945130899976477,0.04945130899976477,0.04945130899976477,0.04945130899976477,0.04945130899976477,0.04945130899976477,0.04945130899976477,0.04945130899976477,0.04945130899976477,0.04945130899976477
0.04942310925683537,0.04942310925683537,0.04942310925683537,0.04942310925683537,0.04942310925683537,0.04942310925683537,0.04942310925683537,0.04942310925683537,0.04942310925683537,0.04942310925683537,0.04942310925683537,0.04942310925683537
0.04939420710212511,0.04939420710212511,0.04939420710212511,0.04939420710212511,0.04939420710212511,0.04939420710212511,0.04939420710212511,0.04939420710212511,0.04939420710212511,0.04939420710212511,0.04939420710212511,0.04939420710212511
0.0493646029463976,0.0493646029463976,0.0493646029463976,0.0493646029463976,0.0493646029463976,0.0493646029463976,0.0493646029463976,0.0493646029463976,0.0493646029463976,0.0493646029463976,0.0493646029463976,0.0493646029463976
0.0493342972103934,0.0493342972103934,0.0493342972103934,0.0493342972103934,0.0493342972103934,0.0493342972103934,0.0493342972103934,0.0493342972103934,0.0493342972103934,0.0493342972103934,0.0493342972103934,0.0493342972103934
0.049303290324824126,0.049303290324824126,0.049303290324824126,0.049303290324824126,0.049303290324824126,0.049303290324824126,0.049303290324824126,0.049303290324824126,0.049303290324824126,0.049303290324824126,0.049303290324824126,0.049303290324824126
0.049271582730366234,0.049271582730366234,0.049271582730366234,0.049271582730366234,0.049271582730366234,0.049271582730366234,0.049271582730366234,0.049271582730366234,0.049271582730366234,0.049271582730366234,0.049271582730366234,0.049271582730366234
0.04923917487765484,0.04923917487765484,0.04923917487765484,0.04923917487765484,0.04923917487765484,0.04923917487765484,0.04923917487765484,0.04923917487765484,0.04923917487765484,0.04923917487765484,0.04923917487765484,0.04923917487765484
0.04920606722727726,0.04920606722727726,0.04920606722727726,0.04920606722727726,0.04920606722727726,0.04920606722727726,0.04920606722727726,0.04920606722727726,0.04920606722727726,0.04920606722727726,0.04920606722727726,0.04920606722727726
0.04917226024976649,0.04917226024976649,0.04917226024976649,0.04917226024976649,0.04917226024976649,0.04917226024976649,0.04917226024976649,0.04917226024976649,0.04917226024976649,0.04917226024976649,0.04917226024976649,0.04917226024976649
0.04913775442559451,0.04913775442559451,0.04913775442559451,0.04913775442559451,0.04913775442559451,0.04913775442559451,0.04913775442559451,0.04913775442559451,0.04913775442559451,0.04913775442559451,0.04913775442559451,0.04913775442559451
0.049102550245165466,0.049102550245165466,0.049102550245165466,0.049102550245165466,0.049102550245165466,0.049102550245165466,0.049102550245165466,0.049102550245165466,0.049102550245165466,0.049102550245165466,0.049102550245165466,0.049102550245165466
0.04906664820880868,0.04906664820880868,0.04906664820880868,0.04906664820880868,0.04906664820880868,0.04906664820880868,0.04906664820880868,0.04906664820880868,0.04906664820880868,0.04906664820880868,0.04906664820880868,0.04906664820880868
0.04903004882677156,0.04903004882677156,0.04903004882677156,0.04903004882677156,0.04903004882677156,0.04903004882677156,0.04903004882677156,0.04903004882677156,0.04903004882677156,0.04903004882677156,0.04903004882677156,0.04903004882677156
0.04899275261921235,0.04899275261921235,0.04899275261921235,0.04899275261921235,0.04899275261921235,0.04899275261921235,0.04899275261921235,0.04899275261921235,0.04899275261921235,0.04899275261921235,0.04899275261921235,0.04899275261921235
0.048954760116192694,0.048954760116192694,0.048954760116192694,0.048954760116192694,0.048954760116192694,0.048954760116192694,0.048954760116192694,0.048954760116192694,0.048954760116192694,0.048954760116192694,0.048954760116192694,0.048954760116192694
0.04891607185767017,0.04891607185767017,0.04891607185767017,0.04891607185767017,0.04891607185767017,0.04891607185767017,0.04891607185767017,0.04891607185767017,0.04891607185767017,0.04891607185767017,0.04891607185767017,0.04891607185767017
0.04887668839349057,0.04887668839349057,0.04887668839349057,0.04887668839349057,0.04887668839349057,0.04887668839349057,0.04887668839349057,0.04887668839349057,0.04887668839349057,0.04887668839349057,0.04887668839349057,0.04887668839349057
0.04883661028338008,0.04883661028338008,0.04883661028338008,0.04883661028338008,0.04883661028338008,0.04883661028338008,0.04883661028338008,0.04883661028338008,0.04883661028338008,0.04883661028338008,0.04883661028338008,0.04883661028338008
0.048795838096937376,0.048795838096937376,0.048795838096937376,0.048795838096937376,0.048795838096937376,0.048795838096937376,0.048795838096937376,0.048795838096937376,0.048795838096937376,0.048795838096937376,0.048795838096937376,0.048795838096937376
0.048754372413625464,0.048754372413625464,0.048754372413625464,0.048754372413625464,0.048754372413625464,0.048754372413625464,0.048754372413625464,0.048754372413625464,0.048754372413625464,0.048754372413625464,0.048754372413625464,0.048754372413625464
0.0487122138227635,0.0487122138227635,0.0487122138227635,0.0487122138227635,0.0487122138227635,0.0487122138227635,0.0487122138227635,0.0487122138227635,0.0487122138227635,0.0487122138227635,0.0487122138227635,0.0487122138227635
0.04866936292351837,0.04866936292351837,0.04866936292351837,0.04866936292351837,0.04866936292351837,0.04866936292351837,0.04866936292351837,0.04866936292351837,0.04866936292351837,0.04866936292351837,0.04866936292351837,0.04866936292351837
0.0486258203248962,0.0486258203248962,0.0486258203248962,0.0486258203248962,0.0486258203248962,0.0486258203248962,0.0486258203248962,0.0486258203248962,0.0486258203248962,0.0486258203248962,0.0486258203248962,0.0486258203248962
0.0485815866457337,0.0485815866457337,0.0485815866457337,0.0485815866457337,0.0485815866457337,0.0485815866457337,0.0485815866457337,0.0485815866457337,0.0485815866457337,0.0485815866457337,0.0485815866457337,0.0485815866457337
0.04853666251468937,0.04853666251468937,0.04853666251468937,0.04853666251468937,0.04853666251468937,0.04853666251468937,0.04853666251468937,0.04853666251468937,0.04853666251468937,0.04853666251468937,0.04853666251468937,0.04853666251468937
0.04849104857023455,0.04849104857023455,0.04849104857023455,0.04849104857023455,0.04849104857023455,0.04849104857023455,0.04849104857023455,0.04849104857023455,0.04849104857023455,0.04849104857023455,0.04849104857023455,0.04849104857023455
0.04844474546064435,0.04844474546064435,0.04844474546064435,0.04844474546064435,0.04844474546064435,0.04844474546064435,0.04844474546064435,0.04844474546064435,0.04844474546064435,0.04844474546064435,0.04844474546064435,0.04844474546064435
0.04839775384398846,0.04839775384398846,0.04839775384398846,0.04839775384398846,0.04839775384398846,0.04839775384398846,0.04839775384398846,0.04839775384398846,0.04839775384398846,0.04839775384398846,0.04839775384398846,0.04839775384398846
0.04835007438812176,0.04835007438812176,0.04835007438812176,0.04835007438812176,0.04835007438812176,0.04835007438812176,0.04835007438812176,0.04835007438812176,0.04835007438812176,0.04835007438812176,0.04835007438812176,0.04835007438812176
0.04830170777067486,0.04830170777067486,0.04830170777067486,0.04830170777067486,0.04830170777067486,0.04830170777067486,0.04830170777067486,0.04830170777067486,0.04830170777067486,0.04830170777067486,0.04830170777067486,0.04830170777067486
0.04825265467904445,0.04825265467904445,0.04825265467904445,0.04825265467904445,0.04825265467904445,0.04825265467904445,0.04825265467904445,0.04825265467904445,0.04825265467904445,0.04825265467904445,0.04825265467904445,0.04825265467904445
0.048202915810383544,0.048202915810383544,0.048202915810383544,0.048202915810383544,0.048202915810383544,0.048202915810383544,0.048202915810383544,0.048202915810383544,0.048202915810383544,0.048202915810383544,0.048202915810383544,0.048202915810383544
0.04815249187159157,0.04815249187159157,0.04815249187159157,0.04815249187159157,0.04815249187159157,0.04815249187159157,0.04815249187159157,0.04815249187159157,0.04815249187159157,0.04815249187159157,0.04815249187159157,0.04815249187159157
